PE UV       SUBTECH     SPECTRUM    ASCII       PEDS        4.00        
   -1
10_TT.Sample.asc
23/04/19
10:16:14.00
23/04/19
10:16:14.00
Analyst

300.000000
1
Lambda 950
950L1311181
PerkinElmer UV WinLab 6.0.4.0738 / 1.61.00 Lambda 900

0
0
3350/servo 860.8/5
0
0
UV/VIS
1
1
1
RBeamAtt,SBeamAtt,150mm sphere / downward view, WB InGaAs Detector
0
0
0
0
Program
Program
3350/servo 860.8/5
3350/0.2 860.8/0.2
3350/0.2 860.8/0.2
0
9.50
 
 
 
0
 
860.8
319.2
860.8
Front
100
 
S:100 R:100
 
0
0
0
 
0
 
 
 
0
 
 
0
0
0
0
0
 
 
 
 
0
0


0
0
#HDR
-1
-1
#GR
nm
%R
1.0
0.0
1200.000000
-10.000000
91
8
74.159365
-1.069085
#DATA
1200.000000	39.715645
1190.000000	39.243748
1180.000000	38.986769
1170.000000	38.990299
1160.000000	39.240441
1150.000000	39.788913
1140.000000	40.611610
1130.000000	41.746759
1120.000000	43.240322
1110.000000	45.076509
1100.000000	47.256501
1090.000000	49.771087
1080.000000	52.635837
1070.000000	55.794965
1060.000000	59.084578
1050.000000	62.331895
1040.000000	65.534113
1030.000000	68.366809
1020.000000	70.661778
1010.000000	72.275403
1000.000000	73.070697
990.000000	73.020930
980.000000	72.179412
970.000000	70.614171
960.000000	68.583326
950.000000	66.330454
940.000000	64.048476
930.000000	61.881519
920.000000	60.044016
910.000000	58.665842
900.000000	57.912670
890.000000	57.815702
880.000000	58.459844
870.000000	59.814751
860.000000	61.977472
850.000000	62.819836
840.000000	64.959214
830.000000	68.549395
820.000000	71.618311
810.000000	73.702465
800.000000	74.159365
790.000000	71.027248
780.000000	61.916600
770.000000	46.036055
760.000000	29.143325
750.000000	18.225167
740.000000	13.584183
730.000000	11.847586
720.000000	11.015977
710.000000	10.343938
700.000000	9.681184
690.000000	8.975137
680.000000	8.191191
670.000000	7.445260
660.000000	6.609602
650.000000	5.766640
640.000000	4.918648
630.000000	4.084347
620.000000	3.313779
610.000000	2.614762
600.000000	1.985914
590.000000	1.452770
580.000000	1.014911
570.000000	0.672893
560.000000	0.405277
550.000000	0.249979
540.000000	0.164740
530.000000	0.106897
520.000000	0.062488
510.000000	0.038349
500.000000	-0.014048
490.000000	-0.028830
480.000000	0.078529
470.000000	0.060083
460.000000	0.000436
450.000000	-0.038353
440.000000	0.017709
430.000000	0.007375
420.000000	-0.004341
410.000000	-0.008085
400.000000	-0.040439
390.000000	-0.058485
380.000000	-0.087353
370.000000	-0.143780
360.000000	0.038056
350.000000	-0.130534
340.000000	-0.246876
330.000000	-0.511036
320.000000	-1.069085
310.000000	-1.006929
300.000000	0.051465
