PE UV       SUBTECH     SPECTRUM    ASCII       PEDS        4.00        
   -1
10_TR.Sample.asc
23/04/19
10:48:12.00
23/04/19
10:48:12.00
Analyst

300.000000
1
Lambda 950
950L1311181
PerkinElmer UV WinLab 6.0.4.0738 / 1.61.00 Lambda 900

0
0
3350/servo 860.8/5
0
0
UV/VIS
1
1
1
RBeamAtt,SBeamAtt,150mm sphere / downward view, WB InGaAs Detector
0
0
0
0
Program
Program
3350/servo 860.8/5
3350/0.2 860.8/0.2
3350/0.2 860.8/0.2
0
9.50
 
 
 
0
 
860.8
319.2
860.8
Front
100
 
S:100 R:100
 
0
0
0
 
0
 
 
 
0
 
 
0
0
0
0
0
 
 
 
 
0
0


0
0
#HDR
-1
-1
#GR
nm
%R
1.0
0.0
1200.000000
-10.000000
91
8
49.322946
8.126053
#DATA
1200.000000	47.810602
1190.000000	48.629327
1180.000000	49.149015
1170.000000	49.322946
1160.000000	49.122358
1150.000000	48.540279
1140.000000	47.556509
1130.000000	46.139517
1120.000000	44.292770
1110.000000	42.017726
1100.000000	39.241086
1090.000000	36.038555
1080.000000	32.392824
1070.000000	28.488228
1060.000000	24.466044
1050.000000	20.478030
1040.000000	16.767728
1030.000000	13.651345
1020.000000	11.353765
1010.000000	10.057673
1000.000000	9.856322
990.000000	10.753609
980.000000	12.618500
970.000000	15.202941
960.000000	18.327355
950.000000	21.617071
940.000000	24.818983
930.000000	27.646903
920.000000	30.030126
910.000000	31.734893
900.000000	32.671200
890.000000	32.766120
880.000000	31.891368
870.000000	30.101624
860.000000	27.541108
850.000000	26.233256
840.000000	23.244905
830.000000	19.957178
820.000000	16.638247
810.000000	14.114510
800.000000	13.170479
790.000000	14.350379
780.000000	16.848644
770.000000	18.747901
760.000000	18.463462
750.000000	17.202655
740.000000	16.474586
730.000000	16.152136
720.000000	15.925873
710.000000	15.686082
700.000000	15.343407
690.000000	14.945813
680.000000	14.522158
670.000000	14.201540
660.000000	13.971871
650.000000	13.939548
640.000000	14.073416
630.000000	14.275708
620.000000	14.464167
610.000000	14.492966
600.000000	14.383083
590.000000	14.232081
580.000000	14.093924
570.000000	14.004037
560.000000	13.919739
550.000000	13.831089
540.000000	13.701918
530.000000	13.499891
520.000000	13.259936
510.000000	13.110783
500.000000	12.968408
490.000000	12.574884
480.000000	12.036107
470.000000	11.572387
460.000000	11.296057
450.000000	11.106320
440.000000	11.128390
430.000000	11.111541
420.000000	11.012085
410.000000	10.802650
400.000000	10.391355
390.000000	9.920151
380.000000	9.448463
370.000000	8.923833
360.000000	8.737573
350.000000	8.418895
340.000000	8.366325
330.000000	8.282125
320.000000	8.129191
310.000000	8.368938
300.000000	8.126053
