PE UV       SUBTECH     SPECTRUM    ASCII       PEDS        4.00        
   -1
1_TT.Sample.asc
23/04/19
09:54:29.00
23/04/19
09:54:29.00
Analyst

300.000000
1
Lambda 950
950L1311181
PerkinElmer UV WinLab 6.0.4.0738 / 1.61.00 Lambda 900

0
0
3350/servo 860.8/5
0
0
UV/VIS
1
1
1
RBeamAtt,SBeamAtt,150mm sphere / downward view, WB InGaAs Detector
0
0
0
0
Program
Program
3350/servo 860.8/5
3350/0.2 860.8/0.2
3350/0.2 860.8/0.2
0
9.50
 
 
 
0
 
860.8
319.2
860.8
Front
100
 
S:100 R:100
 
0
0
0
 
0
 
 
 
0
 
 
0
0
0
0
0
 
 
 
 
0
0


0
0
#HDR
-1
-1
#GR
nm
%R
1.0
0.0
1200.000000
-10.000000
91
8
68.905897
-1.617553
#DATA
1200.000000	45.880645
1190.000000	45.927236
1180.000000	46.045994
1170.000000	46.327615
1160.000000	46.734001
1150.000000	47.255287
1140.000000	47.905592
1130.000000	48.681561
1120.000000	49.603281
1110.000000	50.657372
1100.000000	51.811719
1090.000000	53.074375
1080.000000	54.473399
1070.000000	55.954596
1060.000000	57.457953
1050.000000	58.888449
1040.000000	60.341715
1030.000000	61.659414
1020.000000	62.803369
1010.000000	63.748141
1000.000000	64.467286
990.000000	64.852635
980.000000	65.031166
970.000000	64.956265
960.000000	64.755096
950.000000	64.384640
940.000000	63.991640
930.000000	63.543656
920.000000	63.219725
910.000000	62.953608
900.000000	62.861458
890.000000	62.994906
880.000000	63.336021
870.000000	63.858360
860.000000	64.711659
850.000000	64.852478
840.000000	65.497923
830.000000	67.060174
820.000000	68.265327
810.000000	68.905897
800.000000	68.845675
790.000000	66.403557
780.000000	58.957810
770.000000	44.651374
760.000000	28.097465
750.000000	17.198792
740.000000	12.653823
730.000000	10.980569
720.000000	10.179013
710.000000	9.535994
700.000000	8.909503
690.000000	8.204769
680.000000	7.438822
670.000000	6.738724
660.000000	5.949665
650.000000	5.164638
640.000000	4.393426
630.000000	3.636568
620.000000	2.944961
610.000000	2.303327
600.000000	1.724692
590.000000	1.246193
580.000000	0.861634
570.000000	0.555180
560.000000	0.317041
550.000000	0.185913
540.000000	0.113024
530.000000	0.061732
520.000000	0.022137
510.000000	0.001046
500.000000	-0.052266
490.000000	-0.054263
480.000000	0.053511
470.000000	0.029954
460.000000	-0.026778
450.000000	-0.072009
440.000000	-0.004514
430.000000	-0.006594
420.000000	-0.027173
410.000000	-0.040077
400.000000	-0.066411
390.000000	-0.080461
380.000000	-0.106765
370.000000	-0.166971
360.000000	0.017094
350.000000	-0.155658
340.000000	-0.271942
330.000000	-0.519957
320.000000	-1.085748
310.000000	-1.108671
300.000000	-1.617553
