PE UV       SUBTECH     SPECTRUM    ASCII       PEDS        4.00        
   -1
2_TT.Sample.asc
23/04/19
09:57:13.00
23/04/19
09:57:13.00
Analyst

300.000000
1
Lambda 950
950L1311181
PerkinElmer UV WinLab 6.0.4.0738 / 1.61.00 Lambda 900

0
0
3350/servo 860.8/5
0
0
UV/VIS
1
1
1
RBeamAtt,SBeamAtt,150mm sphere / downward view, WB InGaAs Detector
0
0
0
0
Program
Program
3350/servo 860.8/5
3350/0.2 860.8/0.2
3350/0.2 860.8/0.2
0
9.50
 
 
 
0
 
860.8
319.2
860.8
Front
100
 
S:100 R:100
 
0
0
0
 
0
 
 
 
0
 
 
0
0
0
0
0
 
 
 
 
0
0


0
0
#HDR
-1
-1
#GR
nm
%R
1.0
0.0
1200.000000
-10.000000
91
8
75.098585
-1.080932
#DATA
1200.000000	37.256048
1190.000000	38.482280
1180.000000	40.072492
1170.000000	41.947736
1160.000000	44.216773
1150.000000	46.814627
1140.000000	49.728970
1130.000000	52.954133
1120.000000	56.378166
1110.000000	59.864979
1100.000000	63.228360
1090.000000	66.261869
1080.000000	68.818595
1070.000000	70.709080
1060.000000	71.681714
1050.000000	71.694867
1040.000000	70.909898
1030.000000	69.359318
1020.000000	67.275854
1010.000000	64.853382
1000.000000	62.351591
990.000000	59.874197
980.000000	57.715786
970.000000	55.944738
960.000000	54.700907
950.000000	54.076208
940.000000	54.114023
930.000000	54.817192
920.000000	56.282297
910.000000	58.453928
900.000000	61.220651
890.000000	64.432501
880.000000	67.907670
870.000000	71.070219
860.000000	73.732678
850.000000	74.384996
840.000000	74.875940
830.000000	75.098585
820.000000	73.718427
810.000000	70.753672
800.000000	66.947905
790.000000	61.875482
780.000000	54.127617
770.000000	41.749203
760.000000	27.082929
750.000000	16.887487
740.000000	12.379314
730.000000	10.686362
720.000000	9.857569
710.000000	9.207167
700.000000	8.544696
690.000000	7.836474
680.000000	7.061000
670.000000	6.307625
660.000000	5.520684
650.000000	4.755837
640.000000	3.999771
630.000000	3.279356
620.000000	2.619206
610.000000	2.029296
600.000000	1.508331
590.000000	1.063821
580.000000	0.732214
570.000000	0.453722
560.000000	0.249334
550.000000	0.137384
540.000000	0.095059
530.000000	0.049874
520.000000	0.029632
510.000000	-0.000959
500.000000	-0.044064
490.000000	-0.052957
480.000000	0.056638
470.000000	0.035788
460.000000	-0.034977
450.000000	-0.073661
440.000000	0.002257
430.000000	-0.014057
420.000000	-0.035160
410.000000	-0.035643
400.000000	-0.060571
390.000000	-0.069342
380.000000	-0.118677
370.000000	-0.174017
360.000000	0.018803
350.000000	-0.155658
340.000000	-0.269730
330.000000	-0.520990
320.000000	-1.080932
310.000000	-0.930695
300.000000	1.987527
