PE UV       SUBTECH     SPECTRUM    ASCII       PEDS        4.00        
   -1
3_TT.Sample.asc
23/04/19
09:59:34.00
23/04/19
09:59:34.00
Analyst

300.000000
1
Lambda 950
950L1311181
PerkinElmer UV WinLab 6.0.4.0738 / 1.61.00 Lambda 900

0
0
3350/servo 860.8/5
0
0
UV/VIS
1
1
1
RBeamAtt,SBeamAtt,150mm sphere / downward view, WB InGaAs Detector
0
0
0
0
Program
Program
3350/servo 860.8/5
3350/0.2 860.8/0.2
3350/0.2 860.8/0.2
0
9.50
 
 
 
0
 
860.8
319.2
860.8
Front
100
 
S:100 R:100
 
0
0
0
 
0
 
 
 
0
 
 
0
0
0
0
0
 
 
 
 
0
0


0
0
#HDR
-1
-1
#GR
nm
%R
1.0
0.0
1200.000000
-10.000000
91
8
74.280565
-1.084207
#DATA
1200.000000	38.036436
1190.000000	38.377882
1180.000000	38.984788
1170.000000	39.848006
1160.000000	41.033428
1150.000000	42.525203
1140.000000	44.338866
1130.000000	46.464837
1120.000000	48.944163
1110.000000	51.700933
1100.000000	54.688216
1090.000000	57.828852
1080.000000	61.072367
1070.000000	64.211207
1060.000000	66.992055
1050.000000	69.232552
1040.000000	70.898576
1030.000000	71.782539
1020.000000	71.877441
1010.000000	71.200367
1000.000000	69.861721
990.000000	68.038104
980.000000	65.935148
970.000000	63.701864
960.000000	61.578569
950.000000	59.699551
940.000000	58.253965
930.000000	57.246953
920.000000	56.841714
910.000000	57.012789
900.000000	57.869069
890.000000	59.406170
880.000000	61.545097
870.000000	64.157740
860.000000	67.119669
850.000000	68.243006
840.000000	70.157969
830.000000	72.992454
820.000000	74.280565
810.000000	74.070197
800.000000	71.942272
790.000000	67.146871
780.000000	57.853445
770.000000	43.470136
760.000000	27.849636
750.000000	17.370359
740.000000	12.860317
730.000000	11.201076
720.000000	10.414268
710.000000	9.797230
700.000000	9.176983
690.000000	8.492357
680.000000	7.716778
670.000000	6.963225
660.000000	6.145089
650.000000	5.326666
640.000000	4.512210
630.000000	3.725044
620.000000	3.004673
610.000000	2.364359
600.000000	1.777931
590.000000	1.279661
580.000000	0.876577
570.000000	0.572046
560.000000	0.328835
550.000000	0.197871
540.000000	0.130292
530.000000	0.062691
520.000000	0.040962
510.000000	0.022138
500.000000	-0.031848
490.000000	-0.055744
480.000000	0.065325
470.000000	0.029345
460.000000	-0.023202
450.000000	-0.056007
440.000000	-0.000521
430.000000	-0.011627
420.000000	-0.020575
410.000000	-0.025211
400.000000	-0.051943
390.000000	-0.075558
380.000000	-0.104471
370.000000	-0.160549
360.000000	0.020242
350.000000	-0.145918
340.000000	-0.260238
330.000000	-0.519112
320.000000	-1.084207
310.000000	-0.983635
300.000000	0.634804
