PE UV       SUBTECH     SPECTRUM    ASCII       PEDS        4.00        
   -1
4_TT.Sample.asc
23/04/19
10:01:49.00
23/04/19
10:01:49.00
Analyst

300.000000
1
Lambda 950
950L1311181
PerkinElmer UV WinLab 6.0.4.0738 / 1.61.00 Lambda 900

0
0
3350/servo 860.8/5
0
0
UV/VIS
1
1
1
RBeamAtt,SBeamAtt,150mm sphere / downward view, WB InGaAs Detector
0
0
0
0
Program
Program
3350/servo 860.8/5
3350/0.2 860.8/0.2
3350/0.2 860.8/0.2
0
9.50
 
 
 
0
 
860.8
319.2
860.8
Front
100
 
S:100 R:100
 
0
0
0
 
0
 
 
 
0
 
 
0
0
0
0
0
 
 
 
 
0
0


0
0
#HDR
-1
-1
#GR
nm
%R
1.0
0.0
1200.000000
-10.000000
91
8
73.819171
-1.815431
#DATA
1200.000000	37.037789
1190.000000	37.746865
1180.000000	38.753003
1170.000000	40.018436
1160.000000	41.644907
1150.000000	43.584124
1140.000000	45.855197
1130.000000	48.458761
1120.000000	51.363215
1110.000000	54.487985
1100.000000	57.719403
1090.000000	60.948213
1080.000000	64.034462
1070.000000	66.773704
1060.000000	68.922559
1050.000000	70.281758
1040.000000	70.910455
1030.000000	70.705130
1020.000000	69.759265
1010.000000	68.189732
1000.000000	66.198635
990.000000	63.922504
980.000000	61.642758
970.000000	59.470877
960.000000	57.619999
950.000000	56.213080
940.000000	55.323258
930.000000	54.984936
920.000000	55.337588
910.000000	56.332610
900.000000	57.986344
890.000000	60.288045
880.000000	63.130998
870.000000	66.144024
860.000000	69.278986
850.000000	70.485260
840.000000	72.004926
830.000000	73.659047
820.000000	73.819171
810.000000	72.265584
800.000000	69.171028
790.000000	63.953977
780.000000	55.173549
770.000000	41.850469
760.000000	26.955130
750.000000	16.866409
740.000000	12.537454
730.000000	10.927732
720.000000	10.153744
710.000000	9.514232
700.000000	8.878660
690.000000	8.179328
680.000000	7.388026
670.000000	6.663228
660.000000	5.847749
650.000000	5.054884
640.000000	4.270990
630.000000	3.506641
620.000000	2.825276
610.000000	2.202625
600.000000	1.653561
590.000000	1.191228
580.000000	0.805619
570.000000	0.516904
560.000000	0.290657
550.000000	0.168195
540.000000	0.111978
530.000000	0.058942
520.000000	0.024664
510.000000	0.005752
500.000000	-0.044587
490.000000	-0.065064
480.000000	0.049341
470.000000	0.030912
460.000000	-0.032535
450.000000	-0.068095
440.000000	-0.012935
430.000000	-0.019957
420.000000	-0.036462
410.000000	-0.034861
400.000000	-0.056388
390.000000	-0.083963
380.000000	-0.109412
370.000000	-0.170984
360.000000	0.015564
350.000000	-0.154474
340.000000	-0.268716
330.000000	-0.528784
320.000000	-1.086904
310.000000	-1.133505
300.000000	-1.815431
