PE UV       SUBTECH     SPECTRUM    ASCII       PEDS        4.00        
   -1
5_TT.Sample.asc
23/04/19
10:04:14.00
23/04/19
10:04:14.00
Analyst

300.000000
1
Lambda 950
950L1311181
PerkinElmer UV WinLab 6.0.4.0738 / 1.61.00 Lambda 900

0
0
3350/servo 860.8/5
0
0
UV/VIS
1
1
1
RBeamAtt,SBeamAtt,150mm sphere / downward view, WB InGaAs Detector
0
0
0
0
Program
Program
3350/servo 860.8/5
3350/0.2 860.8/0.2
3350/0.2 860.8/0.2
0
9.50
 
 
 
0
 
860.8
319.2
860.8
Front
100
 
S:100 R:100
 
0
0
0
 
0
 
 
 
0
 
 
0
0
0
0
0
 
 
 
 
0
0


0
0
#HDR
-1
-1
#GR
nm
%R
1.0
0.0
1200.000000
-10.000000
91
8
72.708185
-2.340474
#DATA
1200.000000	39.720745
1190.000000	39.687678
1180.000000	39.864574
1170.000000	40.292744
1160.000000	40.977659
1150.000000	41.928778
1140.000000	43.161932
1130.000000	44.670597
1120.000000	46.486230
1110.000000	48.572128
1100.000000	50.917701
1090.000000	53.457401
1080.000000	56.195646
1070.000000	59.037083
1060.000000	61.815014
1050.000000	64.349213
1040.000000	66.652722
1030.000000	68.495595
1020.000000	69.761574
1010.000000	70.359235
1000.000000	70.338138
990.000000	69.679571
980.000000	68.541987
970.000000	66.966553
960.000000	65.194556
950.000000	63.419936
940.000000	61.796059
930.000000	60.381554
920.000000	59.380860
910.000000	58.804191
900.000000	58.771763
890.000000	59.387808
880.000000	60.576891
870.000000	62.239807
860.000000	64.491669
850.000000	65.236256
840.000000	67.005992
830.000000	69.954646
820.000000	71.917424
810.000000	72.708185
800.000000	72.098878
790.000000	68.541239
780.000000	59.826549
770.000000	44.955170
760.000000	28.327169
750.000000	17.329545
740.000000	12.779053
730.000000	11.218123
720.000000	10.482420
710.000000	9.873441
700.000000	9.237041
690.000000	8.551491
680.000000	7.783184
670.000000	7.057055
660.000000	6.241285
650.000000	5.436507
640.000000	4.632124
630.000000	3.828760
620.000000	3.091669
610.000000	2.439951
600.000000	1.830647
590.000000	1.333403
580.000000	0.942117
570.000000	0.606303
560.000000	0.362644
550.000000	0.216375
540.000000	0.144681
530.000000	0.084750
520.000000	0.046103
510.000000	0.030854
500.000000	-0.025566
490.000000	-0.048079
480.000000	0.066541
470.000000	0.045541
460.000000	-0.013694
450.000000	-0.053050
440.000000	0.010157
430.000000	-0.006334
420.000000	-0.013456
410.000000	-0.019647
400.000000	-0.044971
390.000000	-0.069254
380.000000	-0.092295
370.000000	-0.154216
360.000000	0.031578
350.000000	-0.142641
340.000000	-0.253603
330.000000	-0.510942
320.000000	-1.067255
310.000000	-1.145826
300.000000	-2.340474
