PE UV       SUBTECH     SPECTRUM    ASCII       PEDS        4.00        
   -1
6_TT.Sample.asc
23/04/19
10:06:31.00
23/04/19
10:06:31.00
Analyst

300.000000
1
Lambda 950
950L1311181
PerkinElmer UV WinLab 6.0.4.0738 / 1.61.00 Lambda 900

0
0
3350/servo 860.8/5
0
0
UV/VIS
1
1
1
RBeamAtt,SBeamAtt,150mm sphere / downward view, WB InGaAs Detector
0
0
0
0
Program
Program
3350/servo 860.8/5
3350/0.2 860.8/0.2
3350/0.2 860.8/0.2
0
9.50
 
 
 
0
 
860.8
319.2
860.8
Front
100
 
S:100 R:100
 
0
0
0
 
0
 
 
 
0
 
 
0
0
0
0
0
 
 
 
 
0
0


0
0
#HDR
-1
-1
#GR
nm
%R
1.0
0.0
1200.000000
-10.000000
91
8
71.487684
-1.257488
#DATA
1200.000000	40.753487
1190.000000	40.804723
1180.000000	41.056236
1170.000000	41.506580
1160.000000	42.177254
1150.000000	43.086899
1140.000000	44.246611
1130.000000	45.636220
1120.000000	47.311019
1110.000000	49.220247
1100.000000	51.327397
1090.000000	53.599279
1080.000000	56.028144
1070.000000	58.529048
1060.000000	60.917643
1050.000000	63.079787
1040.000000	64.981258
1030.000000	66.469007
1020.000000	67.465998
1010.000000	67.932991
1000.000000	67.921171
990.000000	67.366998
980.000000	66.490289
970.000000	65.317528
960.000000	64.055134
950.000000	62.777816
940.000000	61.674548
930.000000	60.732869
920.000000	60.138189
910.000000	59.873241
900.000000	60.059454
890.000000	60.753494
880.000000	61.877910
870.000000	63.378981
860.000000	65.330209
850.000000	65.859856
840.000000	67.061162
830.000000	69.241703
820.000000	70.899974
810.000000	71.487684
800.000000	70.832585
790.000000	67.629779
780.000000	59.552353
770.000000	44.780114
760.000000	27.736706
750.000000	16.781003
740.000000	12.559311
730.000000	11.147476
720.000000	10.456980
710.000000	9.844937
700.000000	9.233529
690.000000	8.532066
680.000000	7.750757
670.000000	7.008799
660.000000	6.202720
650.000000	5.398909
640.000000	4.593602
630.000000	3.794885
620.000000	3.071794
610.000000	2.410743
600.000000	1.809875
590.000000	1.302294
580.000000	0.908124
570.000000	0.580873
560.000000	0.342551
550.000000	0.196911
540.000000	0.123664
530.000000	0.066091
520.000000	0.027540
510.000000	0.007408
500.000000	-0.049910
490.000000	-0.065586
480.000000	0.038048
470.000000	0.011842
460.000000	-0.025644
450.000000	-0.064008
440.000000	-0.010504
430.000000	-0.028373
420.000000	-0.026565
410.000000	-0.034252
400.000000	-0.063099
390.000000	-0.079148
380.000000	-0.110648
370.000000	-0.168219
360.000000	0.012145
350.000000	-0.154565
340.000000	-0.266412
330.000000	-0.526436
320.000000	-1.084303
310.000000	-1.102415
300.000000	-1.257488
