PE UV       SUBTECH     SPECTRUM    ASCII       PEDS        4.00        
   -1
7_TT.Sample.asc
23/04/19
10:09:13.00
23/04/19
10:09:13.00
Analyst

300.000000
1
Lambda 950
950L1311181
PerkinElmer UV WinLab 6.0.4.0738 / 1.61.00 Lambda 900

0
0
3350/servo 860.8/5
0
0
UV/VIS
1
1
1
RBeamAtt,SBeamAtt,150mm sphere / downward view, WB InGaAs Detector
0
0
0
0
Program
Program
3350/servo 860.8/5
3350/0.2 860.8/0.2
3350/0.2 860.8/0.2
0
9.50
 
 
 
0
 
860.8
319.2
860.8
Front
100
 
S:100 R:100
 
0
0
0
 
0
 
 
 
0
 
 
0
0
0
0
0
 
 
 
 
0
0


0
0
#HDR
-1
-1
#GR
nm
%R
1.0
0.0
1200.000000
-10.000000
91
8
72.414032
-0.808258
#DATA
1200.000000	40.583866
1190.000000	40.876367
1180.000000	41.356699
1170.000000	42.078291
1160.000000	43.070874
1150.000000	44.299232
1140.000000	45.778083
1130.000000	47.482895
1120.000000	49.447847
1110.000000	51.601720
1100.000000	53.899200
1090.000000	56.291413
1080.000000	58.777379
1070.000000	61.193544
1060.000000	63.416184
1050.000000	65.298726
1040.000000	66.866829
1030.000000	67.932124
1020.000000	68.453470
1010.000000	68.430819
1000.000000	67.946231
990.000000	66.955465
980.000000	65.710542
970.000000	64.227666
960.000000	62.769045
950.000000	61.391459
940.000000	60.325985
930.000000	59.543014
920.000000	59.189706
910.000000	59.235150
900.000000	59.868679
890.000000	60.915675
880.000000	62.519232
870.000000	64.377252
860.000000	66.586471
850.000000	67.217502
840.000000	68.626841
830.000000	70.990847
820.000000	72.205415
810.000000	72.414032
800.000000	71.078494
790.000000	67.329998
780.000000	59.288460
770.000000	45.905240
760.000000	30.102566
750.000000	18.733820
740.000000	13.664941
730.000000	11.888295
720.000000	11.095955
710.000000	10.491497
700.000000	9.896316
690.000000	9.220352
680.000000	8.448707
670.000000	7.737560
660.000000	6.934848
650.000000	6.133502
640.000000	5.353695
630.000000	4.586639
620.000000	3.874022
610.000000	3.243386
600.000000	2.653675
590.000000	2.177888
580.000000	1.799295
570.000000	1.495657
560.000000	1.253573
550.000000	1.164098
540.000000	1.105300
530.000000	1.048393
520.000000	1.023689
510.000000	1.036472
500.000000	1.009014
490.000000	0.980833
480.000000	1.067697
470.000000	1.041523
460.000000	0.970384
450.000000	0.914025
440.000000	0.952128
430.000000	0.926605
420.000000	0.893402
410.000000	0.867004
400.000000	0.834666
390.000000	0.806185
380.000000	0.763945
370.000000	0.711944
360.000000	0.947970
350.000000	0.780200
340.000000	0.636957
330.000000	0.260213
320.000000	-0.512872
310.000000	-0.808258
300.000000	-0.584205
