PE UV       SUBTECH     SPECTRUM    ASCII       PEDS        4.00        
   -1
8_TT.Sample.asc
23/04/19
10:11:28.00
23/04/19
10:11:28.00
Analyst

300.000000
1
Lambda 950
950L1311181
PerkinElmer UV WinLab 6.0.4.0738 / 1.61.00 Lambda 900

0
0
3350/servo 860.8/5
0
0
UV/VIS
1
1
1
RBeamAtt,SBeamAtt,150mm sphere / downward view, WB InGaAs Detector
0
0
0
0
Program
Program
3350/servo 860.8/5
3350/0.2 860.8/0.2
3350/0.2 860.8/0.2
0
9.50
 
 
 
0
 
860.8
319.2
860.8
Front
100
 
S:100 R:100
 
0
0
0
 
0
 
 
 
0
 
 
0
0
0
0
0
 
 
 
 
0
0


0
0
#HDR
-1
-1
#GR
nm
%R
1.0
0.0
1200.000000
-10.000000
91
8
73.195709
-1.060225
#DATA
1200.000000	38.206057
1190.000000	39.361267
1180.000000	40.845393
1170.000000	42.585714
1160.000000	44.653598
1150.000000	47.011051
1140.000000	49.597029
1130.000000	52.394925
1120.000000	55.363285
1110.000000	58.369096
1100.000000	61.274851
1090.000000	63.932720
1080.000000	66.247991
1070.000000	68.064666
1060.000000	69.185411
1050.000000	69.521497
1040.000000	69.217645
1030.000000	68.242931
1020.000000	66.732850
1010.000000	64.844449
1000.000000	62.790923
990.000000	60.690313
980.000000	58.808671
970.000000	57.189801
960.000000	56.008464
950.000000	55.370399
940.000000	55.314439
930.000000	55.814368
920.000000	56.957389
910.000000	58.656538
900.000000	60.888043
890.000000	63.440370
880.000000	66.299497
870.000000	68.895614
860.000000	71.215970
850.000000	72.080632
840.000000	72.572754
830.000000	73.195709
820.000000	72.348890
810.000000	70.193281
800.000000	66.988564
790.000000	62.228228
780.000000	54.344534
770.000000	41.655574
760.000000	27.018863
750.000000	16.835337
740.000000	12.295772
730.000000	10.581282
720.000000	9.730285
710.000000	9.075226
700.000000	8.458335
690.000000	7.744508
680.000000	6.989074
670.000000	6.274677
660.000000	5.492691
650.000000	4.737342
640.000000	3.990640
630.000000	3.290851
620.000000	2.641086
610.000000	2.051180
600.000000	1.531983
590.000000	1.099824
580.000000	0.760440
570.000000	0.493571
560.000000	0.287075
550.000000	0.188008
540.000000	0.135350
530.000000	0.082745
520.000000	0.069896
510.000000	0.046106
500.000000	-0.002705
490.000000	-0.023256
480.000000	0.085478
470.000000	0.066004
460.000000	0.008112
450.000000	-0.035222
440.000000	0.027085
430.000000	0.014404
420.000000	-0.000608
410.000000	-0.005564
400.000000	-0.025623
390.000000	-0.046403
380.000000	-0.077295
370.000000	-0.140123
360.000000	0.048492
350.000000	-0.123707
340.000000	-0.247245
330.000000	-0.499110
320.000000	-1.060225
310.000000	-0.976416
300.000000	0.640095
