PE UV       SUBTECH     SPECTRUM    ASCII       PEDS        4.00        
   -1
9_TR.Sample.asc
23/04/19
10:45:38.00
23/04/19
10:45:38.00
Analyst

300.000000
1
Lambda 950
950L1311181
PerkinElmer UV WinLab 6.0.4.0738 / 1.61.00 Lambda 900

0
0
3350/servo 860.8/5
0
0
UV/VIS
1
1
1
RBeamAtt,SBeamAtt,150mm sphere / downward view, WB InGaAs Detector
0
0
0
0
Program
Program
3350/servo 860.8/5
3350/0.2 860.8/0.2
3350/0.2 860.8/0.2
0
9.50
 
 
 
0
 
860.8
319.2
860.8
Front
100
 
S:100 R:100
 
0
0
0
 
0
 
 
 
0
 
 
0
0
0
0
0
 
 
 
 
0
0


0
0
#HDR
-1
-1
#GR
nm
%R
1.0
0.0
1200.000000
-10.000000
91
8
50.506213
6.242130
#DATA
1200.000000	50.506213
1190.000000	49.835290
1180.000000	48.961379
1170.000000	47.920864
1160.000000	46.679457
1150.000000	45.218481
1140.000000	43.540920
1130.000000	41.682672
1120.000000	39.550369
1110.000000	37.225776
1100.000000	34.658961
1090.000000	31.894484
1080.000000	28.947583
1070.000000	25.919754
1060.000000	22.829349
1050.000000	19.777939
1040.000000	16.855339
1030.000000	14.199910
1020.000000	11.906373
1010.000000	10.068724
1000.000000	8.745784
990.000000	8.001616
980.000000	7.851029
970.000000	8.264888
960.000000	9.236244
950.000000	10.628953
940.000000	12.378133
930.000000	14.331324
920.000000	16.465521
910.000000	18.615246
900.000000	20.756179
890.000000	22.735321
880.000000	24.516129
870.000000	26.053812
860.000000	27.293923
850.000000	27.309995
840.000000	28.090056
830.000000	28.524086
820.000000	28.259341
810.000000	27.412555
800.000000	26.078264
790.000000	24.259867
780.000000	21.595515
770.000000	18.231530
760.000000	14.959193
750.000000	12.609917
740.000000	11.464650
730.000000	11.044262
720.000000	10.929617
710.000000	10.895597
700.000000	10.929737
690.000000	11.058904
680.000000	11.274659
670.000000	11.606124
660.000000	12.031057
650.000000	12.420956
640.000000	12.742362
630.000000	12.922271
620.000000	12.876186
610.000000	12.627496
600.000000	12.197216
590.000000	11.738471
580.000000	11.342025
570.000000	11.099237
560.000000	10.964158
550.000000	10.924467
540.000000	10.863493
530.000000	10.687959
520.000000	10.438560
510.000000	10.250984
500.000000	10.193446
490.000000	9.944726
480.000000	9.555152
470.000000	9.212525
460.000000	8.998623
450.000000	8.860827
440.000000	8.855453
430.000000	8.774507
420.000000	8.579298
410.000000	8.328823
400.000000	7.977736
390.000000	7.611476
380.000000	7.346246
370.000000	7.053530
360.000000	7.160831
350.000000	7.171904
340.000000	7.377162
330.000000	7.455941
320.000000	7.178860
310.000000	7.186150
300.000000	6.242130
