PE UV       SUBTECH     SPECTRUM    ASCII       PEDS        4.00        
   -1
9_TT.Sample.asc
23/04/19
10:13:48.00
23/04/19
10:13:48.00
Analyst

300.000000
1
Lambda 950
950L1311181
PerkinElmer UV WinLab 6.0.4.0738 / 1.61.00 Lambda 900

0
0
3350/servo 860.8/5
0
0
UV/VIS
1
1
1
RBeamAtt,SBeamAtt,150mm sphere / downward view, WB InGaAs Detector
0
0
0
0
Program
Program
3350/servo 860.8/5
3350/0.2 860.8/0.2
3350/0.2 860.8/0.2
0
9.50
 
 
 
0
 
860.8
319.2
860.8
Front
100
 
S:100 R:100
 
0
0
0
 
0
 
 
 
0
 
 
0
0
0
0
0
 
 
 
 
0
0


0
0
#HDR
-1
-1
#GR
nm
%R
1.0
0.0
1200.000000
-10.000000
91
8
75.609626
-1.085940
#DATA
1200.000000	37.578479
1190.000000	38.323889
1180.000000	39.223743
1170.000000	40.240616
1160.000000	41.435679
1150.000000	42.784874
1140.000000	44.284415
1130.000000	45.966521
1120.000000	47.843536
1110.000000	49.896149
1100.000000	52.097006
1090.000000	54.430603
1080.000000	56.957493
1070.000000	59.561650
1060.000000	62.172135
1050.000000	64.700840
1040.000000	67.189150
1030.000000	69.477641
1020.000000	71.495307
1010.000000	73.153002
1000.000000	74.416414
990.000000	75.198460
980.000000	75.609626
970.000000	75.491622
960.000000	74.979314
950.000000	74.111290
940.000000	72.960682
930.000000	71.616389
920.000000	70.120555
910.000000	68.593034
900.000000	67.067479
890.000000	65.677426
880.000000	64.416520
870.000000	63.452208
860.000000	62.796683
850.000000	62.426390
840.000000	61.678561
830.000000	62.026157
820.000000	62.618260
810.000000	63.258980
800.000000	64.267023
790.000000	65.074187
780.000000	64.907202
770.000000	61.793718
760.000000	54.434652
750.000000	44.266387
740.000000	34.817655
730.000000	28.060955
720.000000	24.084841
710.000000	21.848886
700.000000	20.390820
690.000000	19.179614
680.000000	17.917561
670.000000	16.702434
660.000000	15.375463
650.000000	13.992862
640.000000	12.583926
630.000000	11.197078
620.000000	9.775190
610.000000	8.422080
600.000000	7.074197
590.000000	5.825587
580.000000	4.606859
570.000000	3.510404
560.000000	2.547596
550.000000	1.758846
540.000000	1.172365
530.000000	0.727179
520.000000	0.429486
510.000000	0.218590
500.000000	0.074603
490.000000	-0.011149
480.000000	0.084175
470.000000	0.048502
460.000000	-0.017358
450.000000	-0.063573
440.000000	-0.002691
430.000000	-0.016313
420.000000	-0.027520
410.000000	-0.040599
400.000000	-0.054471
390.000000	-0.078009
380.000000	-0.105442
370.000000	-0.173749
360.000000	0.016914
350.000000	-0.158571
340.000000	-0.268532
330.000000	-0.523525
320.000000	-1.085940
310.000000	-1.065260
300.000000	-0.622876
