PE UV       SUBTECH     SPECTRUM    ASCII       PEDS        4.00        
   -1
Void_TT.Sample.asc
23/04/19
09:51:40.00
23/04/19
09:51:40.00
Analyst

300.000000
1
Lambda 950
950L1311181
PerkinElmer UV WinLab 6.0.4.0738 / 1.61.00 Lambda 900

0
0
3350/servo 860.8/5
0
0
UV/VIS
1
1
1
RBeamAtt,SBeamAtt,150mm sphere / downward view, WB InGaAs Detector
0
0
0
0
Program
Program
3350/servo 860.8/5
3350/0.2 860.8/0.2
3350/0.2 860.8/0.2
0
9.50
 
 
 
0
 
860.8
319.2
860.8
Front
100
 
S:100 R:100
 
0
0
0
 
0
 
 
 
0
 
 
0
0
0
0
0
 
 
 
 
0
0


0
0
#HDR
-1
-1
#GR
nm
%R
1.0
0.0
1200.000000
-10.000000
91
8
98.917590
87.245624
#DATA
1200.000000	98.013273
1190.000000	98.021443
1180.000000	98.025020
1170.000000	98.039681
1160.000000	98.094932
1150.000000	98.101831
1140.000000	98.129787
1130.000000	98.148700
1120.000000	98.184545
1110.000000	98.201802
1100.000000	98.201858
1090.000000	98.215633
1080.000000	98.252690
1070.000000	98.305375
1060.000000	98.304190
1050.000000	98.228106
1040.000000	98.266413
1030.000000	98.243263
1020.000000	98.262251
1010.000000	98.264310
1000.000000	98.299864
990.000000	98.304172
980.000000	98.365206
970.000000	98.340908
960.000000	98.476100
950.000000	98.480815
940.000000	98.531093
930.000000	98.458530
920.000000	98.498144
910.000000	98.492785
900.000000	98.517509
890.000000	98.534244
880.000000	98.532655
870.000000	98.439000
860.000000	98.532905
850.000000	98.917590
840.000000	97.629908
830.000000	98.302461
820.000000	98.484029
810.000000	98.471595
800.000000	98.641094
790.000000	98.533465
780.000000	98.491911
770.000000	98.524385
760.000000	98.638490
750.000000	98.573562
740.000000	98.477312
730.000000	98.621407
720.000000	98.525237
710.000000	98.507315
700.000000	98.526557
690.000000	98.499859
680.000000	98.469359
670.000000	98.377437
660.000000	98.412167
650.000000	98.327232
640.000000	98.310256
630.000000	98.276954
620.000000	98.281892
610.000000	98.188195
600.000000	98.249501
590.000000	98.361331
580.000000	98.310279
570.000000	98.379037
560.000000	98.358892
550.000000	98.368210
540.000000	98.350075
530.000000	98.312042
520.000000	98.284947
510.000000	98.346869
500.000000	98.408849
490.000000	98.353721
480.000000	98.170939
470.000000	98.153646
460.000000	98.236722
450.000000	98.213363
440.000000	98.151945
430.000000	98.018679
420.000000	97.895103
410.000000	97.862385
400.000000	97.756005
390.000000	97.506232
380.000000	97.317972
370.000000	97.112531
360.000000	96.812602
350.000000	96.570103
340.000000	96.236887
330.000000	96.245099
320.000000	95.723403
310.000000	92.823160
300.000000	87.245624
