PE UV       SUBTECH     SPECTRUM    ASCII       PEDS        4.00        
   -1
Void_TR.Sample.asc
23/04/19
10:18:40.00
23/04/19
10:18:40.00
Analyst

300.000000
1
Lambda 950
950L1311181
PerkinElmer UV WinLab 6.0.4.0738 / 1.61.00 Lambda 900

0
0
3350/servo 860.8/5
0
0
UV/VIS
1
1
1
RBeamAtt,SBeamAtt,150mm sphere / downward view, WB InGaAs Detector
0
0
0
0
Program
Program
3350/servo 860.8/5
3350/0.2 860.8/0.2
3350/0.2 860.8/0.2
0
9.50
 
 
 
0
 
860.8
319.2
860.8
Front
100
 
S:100 R:100
 
0
0
0
 
0
 
 
 
0
 
 
0
0
0
0
0
 
 
 
 
0
0


0
0
#HDR
-1
-1
#GR
nm
%R
1.0
0.0
1200.000000
-10.000000
91
8
1.652722
-0.810460
#DATA
1200.000000	1.088558
1190.000000	1.080610
1180.000000	1.081006
1170.000000	1.081490
1160.000000	1.077036
1150.000000	1.075674
1140.000000	1.068974
1130.000000	1.072278
1120.000000	1.068601
1110.000000	1.065243
1100.000000	1.063147
1090.000000	1.053928
1080.000000	1.056822
1070.000000	1.057448
1060.000000	1.051315
1050.000000	1.049392
1040.000000	1.039259
1030.000000	1.036949
1020.000000	1.032446
1010.000000	1.032675
1000.000000	1.028289
990.000000	1.026774
980.000000	1.032043
970.000000	1.012079
960.000000	1.011336
950.000000	1.009263
940.000000	1.007369
930.000000	0.990986
920.000000	0.967352
910.000000	0.993745
900.000000	0.984208
890.000000	0.976417
880.000000	0.931284
870.000000	0.901167
860.000000	0.982968
850.000000	0.964683
840.000000	1.652722
830.000000	1.648905
820.000000	1.443875
810.000000	1.176048
800.000000	0.993333
790.000000	1.133226
780.000000	1.088211
770.000000	1.076901
760.000000	1.069415
750.000000	1.040063
740.000000	1.033143
730.000000	1.010346
720.000000	1.004577
710.000000	0.984775
700.000000	0.967622
690.000000	0.955848
680.000000	0.930801
670.000000	0.951445
660.000000	0.959964
650.000000	0.948632
640.000000	0.944790
630.000000	0.930739
620.000000	0.933681
610.000000	0.937007
600.000000	0.944954
590.000000	0.931608
580.000000	0.923329
570.000000	0.925009
560.000000	0.899141
550.000000	0.931226
540.000000	0.956258
530.000000	0.941670
520.000000	0.935404
510.000000	0.913755
500.000000	0.843404
490.000000	0.837205
480.000000	0.984824
470.000000	0.955752
460.000000	0.886997
450.000000	0.843234
440.000000	0.914019
430.000000	0.909251
420.000000	0.886717
410.000000	0.890477
400.000000	0.872141
390.000000	0.857491
380.000000	0.838416
370.000000	0.790524
360.000000	0.992953
350.000000	0.836455
340.000000	0.727543
330.000000	0.479296
320.000000	-0.048542
310.000000	-0.066320
300.000000	-0.810460
