PE UV       SUBTECH     SPECTRUM    ASCII       PEDS        4.00        
   -1
10_TT.Sample.asc
23/04/05
09:23:21.00
23/04/05
09:23:21.00
Analyst

300.000000
1
Lambda 950
950L1311181
PerkinElmer UV WinLab 6.0.4.0738 / 1.61.00 Lambda 900

0
0
3350/servo 860.8/5
0
0
UV/VIS
1
1
1
RBeamAtt,SBeamAtt,150mm sphere / downward view, WB InGaAs Detector
0
0
0
0
Program
Program
3350/servo 860.8/5
3350/0.2 860.8/0.2
3350/0.2 860.8/0.2
0
9.50
 
 
 
0
 
860.8
319.2
860.8
Front
100
 
S:100 R:100
 
0
0
0
 
0
 
 
 
0
 
 
0
0
0
0
0
 
 
 
 
0
0


0
0
#HDR
-1
-1
#GR
nm
%R
1.0
0.0
1200.000000
-10.000000
91
8
75.598083
-1.026515
#DATA
1200.000000	38.661559
1190.000000	38.519943
1180.000000	38.624422
1170.000000	38.988508
1160.000000	39.646272
1150.000000	40.607080
1140.000000	41.867727
1130.000000	43.474562
1120.000000	45.459985
1110.000000	47.791288
1100.000000	50.431035
1090.000000	53.379203
1080.000000	56.639324
1070.000000	60.034657
1060.000000	63.387651
1050.000000	66.497659
1040.000000	69.303863
1030.000000	71.520616
1020.000000	72.962341
1010.000000	73.566293
1000.000000	73.324143
990.000000	72.261684
980.000000	70.560714
970.000000	68.348506
960.000000	65.969745
950.000000	63.609291
940.000000	61.467783
930.000000	59.647444
920.000000	58.354266
910.000000	57.638879
900.000000	57.616942
890.000000	58.385855
880.000000	59.850969
870.000000	62.068888
860.000000	64.914747
850.000000	65.677473
840.000000	68.294958
830.000000	71.778235
820.000000	74.427641
810.000000	75.598083
800.000000	74.465652
790.000000	69.650889
780.000000	58.821495
770.000000	41.592740
760.000000	24.597791
750.000000	15.269657
740.000000	12.172736
730.000000	11.151801
720.000000	10.548360
710.000000	9.936510
700.000000	9.304811
690.000000	8.593692
680.000000	7.820612
670.000000	7.073659
660.000000	6.246225
650.000000	5.416449
640.000000	4.595776
630.000000	3.812214
620.000000	3.082429
610.000000	2.433150
600.000000	1.849848
590.000000	1.372639
580.000000	0.972790
570.000000	0.670621
560.000000	0.446513
550.000000	0.314744
540.000000	0.251514
530.000000	0.198448
520.000000	0.163846
510.000000	0.147121
500.000000	0.095195
490.000000	0.074732
480.000000	0.181902
470.000000	0.152471
460.000000	0.096733
450.000000	0.051485
440.000000	0.107384
430.000000	0.092756
420.000000	0.087161
410.000000	0.076068
400.000000	0.052205
390.000000	0.029680
380.000000	-0.002294
370.000000	-0.065557
360.000000	0.122174
350.000000	-0.050065
340.000000	-0.168547
330.000000	-0.442485
320.000000	-1.026515
310.000000	-0.929540
300.000000	1.371193
