PE UV       SUBTECH     SPECTRUM    ASCII       PEDS        4.00        
   -1
1_TT.Sample.asc
23/04/05
09:01:40.00
23/04/05
09:01:40.00
Analyst

300.000000
1
Lambda 950
950L1311181
PerkinElmer UV WinLab 6.0.4.0738 / 1.61.00 Lambda 900

0
0
3350/servo 860.8/5
0
0
UV/VIS
1
1
1
RBeamAtt,SBeamAtt,150mm sphere / downward view, WB InGaAs Detector
0
0
0
0
Program
Program
3350/servo 860.8/5
3350/0.2 860.8/0.2
3350/0.2 860.8/0.2
0
9.50
 
 
 
0
 
860.8
319.2
860.8
Front
100
 
S:100 R:100
 
0
0
0
 
0
 
 
 
0
 
 
0
0
0
0
0
 
 
 
 
0
0


0
0
#HDR
-1
-1
#GR
nm
%R
1.0
0.0
1200.000000
-10.000000
91
8
70.185374
-1.983872
#DATA
1200.000000	45.570681
1190.000000	45.750533
1180.000000	46.011278
1170.000000	46.428761
1160.000000	46.992968
1150.000000	47.673829
1140.000000	48.491661
1130.000000	49.453890
1120.000000	50.561998
1110.000000	51.808499
1100.000000	53.135871
1090.000000	54.561056
1080.000000	56.120826
1070.000000	57.716698
1060.000000	59.300342
1050.000000	60.762364
1040.000000	62.171880
1030.000000	63.400285
1020.000000	64.395256
1010.000000	65.098060
1000.000000	65.537343
990.000000	65.653391
980.000000	65.564994
970.000000	65.231767
960.000000	64.829241
950.000000	64.334432
940.000000	63.873959
930.000000	63.441436
920.000000	63.203401
910.000000	63.069435
900.000000	63.165630
890.000000	63.471798
880.000000	64.067278
870.000000	64.826784
860.000000	65.939136
850.000000	66.270944
840.000000	66.904468
830.000000	68.583363
820.000000	69.768736
810.000000	70.185374
800.000000	69.500943
790.000000	65.948809
780.000000	56.551614
770.000000	39.746304
760.000000	22.867415
750.000000	14.145029
740.000000	11.353007
730.000000	10.401484
720.000000	9.823281
710.000000	9.227479
700.000000	8.587448
690.000000	7.892685
680.000000	7.129389
670.000000	6.409498
660.000000	5.631959
650.000000	4.869238
640.000000	4.109250
630.000000	3.373318
620.000000	2.704284
610.000000	2.096954
600.000000	1.554675
590.000000	1.108562
580.000000	0.753362
570.000000	0.474695
560.000000	0.266370
550.000000	0.153793
540.000000	0.095059
530.000000	0.050833
520.000000	0.026756
510.000000	0.006973
500.000000	-0.043715
490.000000	-0.054873
480.000000	0.048212
470.000000	0.031260
460.000000	-0.024598
450.000000	-0.068878
440.000000	-0.005295
430.000000	-0.015618
420.000000	-0.029777
410.000000	-0.040251
400.000000	-0.057085
390.000000	-0.080023
380.000000	-0.109412
370.000000	-0.168933
360.000000	0.014844
350.000000	-0.157751
340.000000	-0.263740
330.000000	-0.522211
320.000000	-1.082280
310.000000	-1.138029
300.000000	-1.983872
