PE UV       SUBTECH     SPECTRUM    ASCII       PEDS        4.00        
   -1
2_TT.Sample.asc
23/04/05
09:04:17.00
23/04/05
09:04:17.00
Analyst

300.000000
1
Lambda 950
950L1311181
PerkinElmer UV WinLab 6.0.4.0738 / 1.61.00 Lambda 900

0
0
3350/servo 860.8/5
0
0
UV/VIS
1
1
1
RBeamAtt,SBeamAtt,150mm sphere / downward view, WB InGaAs Detector
0
0
0
0
Program
Program
3350/servo 860.8/5
3350/0.2 860.8/0.2
3350/0.2 860.8/0.2
0
9.50
 
 
 
0
 
860.8
319.2
860.8
Front
100
 
S:100 R:100
 
0
0
0
 
0
 
 
 
0
 
 
0
0
0
0
0
 
 
 
 
0
0


0
0
#HDR
-1
-1
#GR
nm
%R
1.0
0.0
1200.000000
-10.000000
91
8
76.073493
-1.079584
#DATA
1200.000000	38.942435
1190.000000	40.632173
1180.000000	42.708357
1170.000000	45.064102
1160.000000	47.789464
1150.000000	50.806826
1140.000000	54.022358
1130.000000	57.398856
1120.000000	60.804437
1110.000000	64.016507
1100.000000	66.840621
1090.000000	69.075559
1080.000000	70.648020
1070.000000	71.376838
1060.000000	71.230604
1050.000000	70.229121
1040.000000	68.601774
1030.000000	66.461692
1020.000000	64.073240
1010.000000	61.609856
1000.000000	59.258737
990.000000	57.183829
980.000000	55.570001
970.000000	54.464332
960.000000	53.983356
950.000000	54.183706
940.000000	55.086827
930.000000	56.629742
920.000000	58.912104
910.000000	61.739079
900.000000	64.962314
890.000000	68.255242
880.000000	71.376040
870.000000	73.752114
860.000000	75.208846
850.000000	76.073493
840.000000	74.460949
830.000000	73.530395
820.000000	71.069376
810.000000	67.837071
800.000000	64.348585
790.000000	60.263686
780.000000	53.037428
770.000000	39.038691
760.000000	22.737194
750.000000	13.762259
740.000000	10.865254
730.000000	9.886006
720.000000	9.286661
710.000000	8.705434
700.000000	8.041008
690.000000	7.336934
680.000000	6.556488
670.000000	5.843145
660.000000	5.098722
650.000000	4.354155
640.000000	3.643072
630.000000	2.964465
620.000000	2.354557
610.000000	1.800777
600.000000	1.313353
590.000000	0.917627
580.000000	0.610135
570.000000	0.376645
560.000000	0.203993
550.000000	0.114428
540.000000	0.076396
530.000000	0.040370
520.000000	0.024403
510.000000	0.009326
500.000000	-0.040137
490.000000	-0.061841
480.000000	0.053337
470.000000	0.033699
460.000000	-0.023813
450.000000	-0.064704
440.000000	-0.005729
430.000000	-0.013970
420.000000	-0.028735
410.000000	-0.031384
400.000000	-0.051333
390.000000	-0.081249
380.000000	-0.108001
370.000000	-0.163849
360.000000	0.018893
350.000000	-0.154201
340.000000	-0.264201
330.000000	-0.526436
320.000000	-1.079584
310.000000	-1.042255
300.000000	-0.387770
