PE UV       SUBTECH     SPECTRUM    ASCII       PEDS        4.00        
   -1
3_TR.Sample.asc
23/04/05
09:33:44.00
23/04/05
09:33:44.00
Analyst

300.000000
1
Lambda 950
950L1311181
PerkinElmer UV WinLab 6.0.4.0738 / 1.61.00 Lambda 900

0
0
3350/servo 860.8/5
0
0
UV/VIS
1
1
1
RBeamAtt,SBeamAtt,150mm sphere / downward view, WB InGaAs Detector
0
0
0
0
Program
Program
3350/servo 860.8/5
3350/0.2 860.8/0.2
3350/0.2 860.8/0.2
0
9.50
 
 
 
0
 
860.8
319.2
860.8
Front
100
 
S:100 R:100
 
0
0
0
 
0
 
 
 
0
 
 
0
0
0
0
0
 
 
 
 
0
0


0
0
#HDR
-1
-1
#GR
nm
%R
1.0
0.0
1200.000000
-10.000000
91
8
50.772261
5.793287
#DATA
1200.000000	50.772261
1190.000000	50.339537
1180.000000	49.508722
1170.000000	48.307441
1160.000000	46.657884
1150.000000	44.551844
1140.000000	42.033241
1130.000000	39.010576
1120.000000	35.576126
1110.000000	31.788991
1100.000000	27.725256
1090.000000	23.580963
1080.000000	19.509691
1070.000000	15.851816
1060.000000	12.876865
1050.000000	10.802770
1040.000000	9.802613
1030.000000	9.955824
1020.000000	11.193080
1010.000000	13.337666
1000.000000	16.192851
990.000000	19.463361
980.000000	22.835276
970.000000	26.055774
960.000000	28.999963
950.000000	31.412040
940.000000	33.191959
930.000000	34.182002
920.000000	34.384088
910.000000	33.696296
900.000000	32.133255
890.000000	29.764874
880.000000	26.613952
870.000000	23.057824
860.000000	19.531007
850.000000	17.816145
840.000000	15.442247
830.000000	13.866246
820.000000	13.567172
810.000000	14.872402
800.000000	17.845849
790.000000	21.594825
780.000000	23.812156
770.000000	22.240400
760.000000	18.969393
750.000000	17.307543
740.000000	16.698125
730.000000	16.310986
720.000000	15.936168
710.000000	15.510872
700.000000	15.105914
690.000000	14.813966
680.000000	14.625130
670.000000	14.692137
660.000000	14.875765
650.000000	15.166127
640.000000	15.387252
630.000000	15.466040
620.000000	15.415805
610.000000	15.276261
600.000000	15.142834
590.000000	15.087577
580.000000	15.100445
570.000000	15.120690
560.000000	15.063584
550.000000	14.995885
540.000000	14.884486
530.000000	14.689099
520.000000	14.440934
510.000000	14.161375
500.000000	13.816699
490.000000	13.265935
480.000000	12.655303
470.000000	12.017870
460.000000	11.465362
450.000000	11.074577
440.000000	10.945222
430.000000	10.830670
420.000000	10.761800
410.000000	10.597656
400.000000	10.177743
390.000000	9.529404
380.000000	8.779283
370.000000	7.923793
360.000000	7.319171
350.000000	6.597245
340.000000	6.172824
330.000000	5.925369
320.000000	5.793287
310.000000	6.311475
300.000000	6.493205
