PE UV       SUBTECH     SPECTRUM    ASCII       PEDS        4.00        
   -1
3_TT.Sample.asc
23/04/05
09:06:36.00
23/04/05
09:06:36.00
Analyst

300.000000
1
Lambda 950
950L1311181
PerkinElmer UV WinLab 6.0.4.0738 / 1.61.00 Lambda 900

0
0
3350/servo 860.8/5
0
0
UV/VIS
1
1
1
RBeamAtt,SBeamAtt,150mm sphere / downward view, WB InGaAs Detector
0
0
0
0
Program
Program
3350/servo 860.8/5
3350/0.2 860.8/0.2
3350/0.2 860.8/0.2
0
9.50
 
 
 
0
 
860.8
319.2
860.8
Front
100
 
S:100 R:100
 
0
0
0
 
0
 
 
 
0
 
 
0
0
0
0
0
 
 
 
 
0
0


0
0
#HDR
-1
-1
#GR
nm
%R
1.0
0.0
1200.000000
-10.000000
91
8
75.782004
-2.784424
#DATA
1200.000000	37.840560
1190.000000	38.533441
1180.000000	39.537508
1170.000000	40.823733
1160.000000	42.469758
1150.000000	44.446808
1140.000000	46.766933
1130.000000	49.464790
1120.000000	52.490985
1110.000000	55.774368
1100.000000	59.157651
1090.000000	62.571716
1080.000000	65.852291
1070.000000	68.755216
1060.000000	71.013441
1050.000000	72.469635
1040.000000	73.113428
1030.000000	72.893741
1020.000000	71.853985
1010.000000	70.166402
1000.000000	68.036099
990.000000	65.615355
980.000000	63.233493
970.000000	60.944937
960.000000	59.014961
950.000000	57.542327
940.000000	56.619618
930.000000	56.267815
920.000000	56.656617
910.000000	57.705923
900.000000	59.503241
890.000000	61.908831
880.000000	64.873736
870.000000	68.088440
860.000000	71.307682
850.000000	72.411081
840.000000	73.727534
830.000000	75.782004
820.000000	75.599449
810.000000	73.709645
800.000000	70.136249
790.000000	64.042635
780.000000	53.719414
770.000000	38.175609
760.000000	22.401995
750.000000	14.034934
740.000000	11.356298
730.000000	10.444143
720.000000	9.876458
710.000000	9.302325
700.000000	8.655989
690.000000	7.947779
680.000000	7.169577
670.000000	6.418578
660.000000	5.616446
650.000000	4.821394
640.000000	4.051945
630.000000	3.310183
620.000000	2.647013
610.000000	2.050919
600.000000	1.511648
590.000000	1.072385
580.000000	0.720767
570.000000	0.447517
560.000000	0.245752
550.000000	0.142185
540.000000	0.089652
530.000000	0.041939
520.000000	0.020306
510.000000	0.004619
500.000000	-0.041271
490.000000	-0.056702
480.000000	0.046040
470.000000	0.027081
460.000000	-0.023115
450.000000	-0.066965
440.000000	-0.010938
430.000000	-0.018221
420.000000	-0.030124
410.000000	-0.039816
400.000000	-0.059090
390.000000	-0.081512
380.000000	-0.111001
370.000000	-0.166703
360.000000	0.016104
350.000000	-0.150742
340.000000	-0.270744
330.000000	-0.524277
320.000000	-1.083533
310.000000	-1.177783
300.000000	-2.784424
