PE UV       SUBTECH     SPECTRUM    ASCII       PEDS        4.00        
   -1
4_TT.Sample.asc
23/04/05
09:09:08.00
23/04/05
09:09:08.00
Analyst

300.000000
1
Lambda 950
950L1311181
PerkinElmer UV WinLab 6.0.4.0738 / 1.61.00 Lambda 900

0
0
3350/servo 860.8/5
0
0
UV/VIS
1
1
1
RBeamAtt,SBeamAtt,150mm sphere / downward view, WB InGaAs Detector
0
0
0
0
Program
Program
3350/servo 860.8/5
3350/0.2 860.8/0.2
3350/0.2 860.8/0.2
0
9.50
 
 
 
0
 
860.8
319.2
860.8
Front
100
 
S:100 R:100
 
0
0
0
 
0
 
 
 
0
 
 
0
0
0
0
0
 
 
 
 
0
0


0
0
#HDR
-1
-1
#GR
nm
%R
1.0
0.0
1200.000000
-10.000000
91
8
75.524224
-1.458732
#DATA
1200.000000	37.699934
1190.000000	38.735442
1180.000000	40.105227
1170.000000	41.758925
1160.000000	43.793514
1150.000000	46.155896
1140.000000	48.854757
1130.000000	51.850564
1120.000000	55.110739
1110.000000	58.510077
1100.000000	61.871488
1090.000000	65.034596
1080.000000	67.875965
1070.000000	70.130524
1060.000000	71.625209
1050.000000	72.208775
1040.000000	71.993519
1030.000000	70.969737
1020.000000	69.282013
1010.000000	67.160924
1000.000000	64.762500
990.000000	62.303803
980.000000	60.040182
970.000000	58.089105
960.000000	56.566719
950.000000	55.637396
940.000000	55.320942
930.000000	55.637075
920.000000	56.702957
910.000000	58.433754
900.000000	60.883304
890.000000	63.822379
880.000000	67.047522
870.000000	70.236310
860.000000	73.081577
850.000000	74.113676
840.000000	74.481254
830.000000	75.524224
820.000000	74.298169
810.000000	71.811607
800.000000	67.824475
790.000000	61.992136
780.000000	52.653702
770.000000	37.840188
760.000000	22.000808
750.000000	13.690878
740.000000	11.070144
730.000000	10.181825
720.000000	9.609807
710.000000	9.017620
700.000000	8.392793
690.000000	7.685804
680.000000	6.901540
670.000000	6.164415
660.000000	5.381330
650.000000	4.615344
640.000000	3.873248
630.000000	3.161968
620.000000	2.512422
610.000000	1.938969
600.000000	1.421577
590.000000	0.995836
580.000000	0.670694
570.000000	0.420514
560.000000	0.221815
550.000000	0.129878
540.000000	0.076919
530.000000	0.040457
520.000000	0.012114
510.000000	0.009587
500.000000	-0.044064
490.000000	-0.067677
480.000000	0.048299
470.000000	0.028300
460.000000	-0.026778
450.000000	-0.068704
440.000000	-0.017102
430.000000	-0.015965
420.000000	-0.030993
410.000000	-0.037208
400.000000	-0.057783
390.000000	-0.085014
380.000000	-0.108706
370.000000	-0.164652
360.000000	0.017453
350.000000	-0.159117
340.000000	-0.268532
330.000000	-0.523525
320.000000	-1.076309
310.000000	-1.110019
300.000000	-1.458732
