PE UV       SUBTECH     SPECTRUM    ASCII       PEDS        4.00        
   -1
5_TR.Sample.asc
23/04/05
09:39:09.00
23/04/05
09:39:09.00
Analyst

300.000000
1
Lambda 950
950L1311181
PerkinElmer UV WinLab 6.0.4.0738 / 1.61.00 Lambda 900

0
0
3350/servo 860.8/5
0
0
UV/VIS
1
1
1
RBeamAtt,SBeamAtt,150mm sphere / downward view, WB InGaAs Detector
0
0
0
0
Program
Program
3350/servo 860.8/5
3350/0.2 860.8/0.2
3350/0.2 860.8/0.2
0
9.50
 
 
 
0
 
860.8
319.2
860.8
Front
100
 
S:100 R:100
 
0
0
0
 
0
 
 
 
0
 
 
0
0
0
0
0
 
 
 
 
0
0


0
0
#HDR
-1
-1
#GR
nm
%R
1.0
0.0
1200.000000
-10.000000
91
8
48.760911
5.421954
#DATA
1200.000000	48.558218
1190.000000	48.760911
1180.000000	48.617616
1170.000000	48.148135
1160.000000	47.307516
1150.000000	46.090107
1140.000000	44.475603
1130.000000	42.513732
1120.000000	40.124210
1110.000000	37.405522
1100.000000	34.317329
1090.000000	30.966795
1080.000000	27.414068
1070.000000	23.847358
1060.000000	20.420415
1050.000000	17.346128
1040.000000	14.829257
1030.000000	13.086208
1020.000000	12.248059
1010.000000	12.350021
1000.000000	13.396036
990.000000	15.231186
980.000000	17.648103
970.000000	20.385539
960.000000	23.275162
950.000000	26.028707
940.000000	28.445975
930.000000	30.326289
920.000000	31.628074
910.000000	32.220809
900.000000	32.082416
890.000000	31.164721
880.000000	29.471741
870.000000	27.117742
860.000000	24.280501
850.000000	22.894284
840.000000	20.371923
830.000000	17.917078
820.000000	15.891023
810.000000	14.990354
800.000000	15.642689
790.000000	17.913538
780.000000	20.294591
770.000000	20.416126
760.000000	18.426709
750.000000	17.057122
740.000000	16.553065
730.000000	16.320146
720.000000	16.101485
710.000000	15.839102
700.000000	15.519384
690.000000	15.196442
680.000000	14.904638
670.000000	14.740997
660.000000	14.700533
650.000000	14.826616
640.000000	15.001945
630.000000	15.174748
620.000000	15.264826
610.000000	15.233801
600.000000	15.144405
590.000000	15.057778
580.000000	14.998028
570.000000	14.981042
560.000000	14.951847
550.000000	14.900310
540.000000	14.805387
530.000000	14.638527
520.000000	14.421935
510.000000	14.117099
500.000000	13.740700
490.000000	13.202004
480.000000	12.638885
470.000000	12.039813
460.000000	11.501037
450.000000	11.136759
440.000000	11.032466
430.000000	10.960563
420.000000	10.929004
410.000000	10.803258
400.000000	10.456633
390.000000	9.914023
380.000000	9.251786
370.000000	8.521569
360.000000	8.007950
350.000000	7.297249
340.000000	6.857055
330.000000	6.504392
320.000000	6.204452
310.000000	6.519002
300.000000	5.421954
