PE UV       SUBTECH     SPECTRUM    ASCII       PEDS        4.00        
   -1
5_TT.Sample.asc
23/04/05
09:11:24.00
23/04/05
09:11:24.00
Analyst

300.000000
1
Lambda 950
950L1311181
PerkinElmer UV WinLab 6.0.4.0738 / 1.61.00 Lambda 900

0
0
3350/servo 860.8/5
0
0
UV/VIS
1
1
1
RBeamAtt,SBeamAtt,150mm sphere / downward view, WB InGaAs Detector
0
0
0
0
Program
Program
3350/servo 860.8/5
3350/0.2 860.8/0.2
3350/0.2 860.8/0.2
0
9.50
 
 
 
0
 
860.8
319.2
860.8
Front
100
 
S:100 R:100
 
0
0
0
 
0
 
 
 
0
 
 
0
0
0
0
0
 
 
 
 
0
0


0
0
#HDR
-1
-1
#GR
nm
%R
1.0
0.0
1200.000000
-10.000000
91
8
73.861321
-1.076309
#DATA
1200.000000	39.280732
1190.000000	39.454338
1180.000000	39.870705
1170.000000	40.539055
1160.000000	41.483441
1150.000000	42.707792
1140.000000	44.227332
1130.000000	46.037091
1120.000000	48.187558
1110.000000	50.595423
1100.000000	53.224373
1090.000000	56.029289
1080.000000	58.990146
1070.000000	61.931637
1060.000000	64.698369
1050.000000	67.080572
1040.000000	69.075371
1030.000000	70.451540
1020.000000	71.150573
1010.000000	71.121908
1000.000000	70.456003
990.000000	69.201111
980.000000	67.596290
970.000000	65.669362
960.000000	63.752148
950.000000	61.950646
940.000000	60.463442
930.000000	59.302496
920.000000	58.673118
910.000000	58.549668
900.000000	59.059994
890.000000	60.186586
880.000000	61.886294
870.000000	64.057022
860.000000	66.674166
850.000000	67.749668
840.000000	69.528518
830.000000	72.221097
820.000000	73.660092
810.000000	73.861321
800.000000	72.021879
790.000000	66.887366
780.000000	56.279644
770.000000	39.490484
760.000000	23.018602
750.000000	14.417368
740.000000	11.646587
730.000000	10.713247
720.000000	10.130346
710.000000	9.558610
700.000000	8.908389
690.000000	8.198581
680.000000	7.436235
670.000000	6.694533
660.000000	5.882848
650.000000	5.082062
640.000000	4.300469
630.000000	3.527454
620.000000	2.825625
610.000000	2.202451
600.000000	1.645706
590.000000	1.179169
580.000000	0.807717
570.000000	0.517865
560.000000	0.306907
550.000000	0.174392
540.000000	0.126891
530.000000	0.068271
520.000000	0.045406
510.000000	0.024491
500.000000	-0.036298
490.000000	-0.043985
480.000000	0.063935
470.000000	0.038749
460.000000	-0.020498
450.000000	-0.056703
440.000000	-0.002865
430.000000	-0.004859
420.000000	-0.017623
410.000000	-0.023299
400.000000	-0.049852
390.000000	-0.071268
380.000000	-0.095030
370.000000	-0.161797
360.000000	0.026630
350.000000	-0.144643
340.000000	-0.258211
330.000000	-0.512914
320.000000	-1.076309
310.000000	-1.038982
300.000000	-0.472616
