PE UV       SUBTECH     SPECTRUM    ASCII       PEDS        4.00        
   -1
6_TT.Sample.asc
23/04/05
09:13:43.00
23/04/05
09:13:43.00
Analyst

300.000000
1
Lambda 950
950L1311181
PerkinElmer UV WinLab 6.0.4.0738 / 1.61.00 Lambda 900

0
0
3350/servo 860.8/5
0
0
UV/VIS
1
1
1
RBeamAtt,SBeamAtt,150mm sphere / downward view, WB InGaAs Detector
0
0
0
0
Program
Program
3350/servo 860.8/5
3350/0.2 860.8/0.2
3350/0.2 860.8/0.2
0
9.50
 
 
 
0
 
860.8
319.2
860.8
Front
100
 
S:100 R:100
 
0
0
0
 
0
 
 
 
0
 
 
0
0
0
0
0
 
 
 
 
0
0


0
0
#HDR
-1
-1
#GR
nm
%R
1.0
0.0
1200.000000
-10.000000
91
8
71.028866
-1.084688
#DATA
1200.000000	41.489297
1190.000000	41.665869
1180.000000	42.064980
1170.000000	42.623985
1160.000000	43.411328
1150.000000	44.410291
1140.000000	45.650374
1130.000000	47.124404
1120.000000	48.850339
1110.000000	50.802296
1100.000000	52.877304
1090.000000	55.082495
1080.000000	57.380783
1070.000000	59.693446
1060.000000	61.818277
1050.000000	63.637126
1040.000000	65.166595
1030.000000	66.277819
1020.000000	66.918376
1010.000000	67.076388
1000.000000	66.821649
990.000000	66.150137
980.000000	65.281002
970.000000	64.204368
960.000000	63.134270
950.000000	62.149235
940.000000	61.342975
930.000000	60.739324
920.000000	60.470294
910.000000	60.532028
900.000000	61.017812
890.000000	61.949653
880.000000	63.249812
870.000000	64.826616
860.000000	66.698014
850.000000	67.161836
840.000000	67.896810
830.000000	69.861630
820.000000	71.016883
810.000000	71.028866
800.000000	69.690957
790.000000	65.651484
780.000000	56.117533
770.000000	39.468322
760.000000	22.708628
750.000000	14.218341
740.000000	11.590048
730.000000	10.691959
720.000000	10.108565
710.000000	9.517219
700.000000	8.874976
690.000000	8.149503
680.000000	7.378281
670.000000	6.642559
660.000000	5.841336
650.000000	5.044985
640.000000	4.253512
630.000000	3.508557
620.000000	2.811765
610.000000	2.189111
600.000000	1.628512
590.000000	1.170605
580.000000	0.803347
570.000000	0.499514
560.000000	0.276242
550.000000	0.159379
540.000000	0.099507
530.000000	0.051356
520.000000	0.021701
510.000000	0.006101
500.000000	-0.049473
490.000000	-0.052434
480.000000	0.045171
470.000000	0.019941
460.000000	-0.038641
450.000000	-0.073487
440.000000	-0.013455
430.000000	-0.016660
420.000000	-0.031861
410.000000	-0.043815
400.000000	-0.058828
390.000000	-0.082825
380.000000	-0.111265
370.000000	-0.172144
360.000000	0.010526
350.000000	-0.159845
340.000000	-0.269269
330.000000	-0.520896
320.000000	-1.084688
310.000000	-1.046201
300.000000	-0.233182
