PE UV       SUBTECH     SPECTRUM    ASCII       PEDS        4.00        
   -1
7_TR.Sample.asc
23/04/05
09:44:51.00
23/04/05
09:44:51.00
Analyst

300.000000
1
Lambda 950
950L1311181
PerkinElmer UV WinLab 6.0.4.0738 / 1.61.00 Lambda 900

0
0
3350/servo 860.8/5
0
0
UV/VIS
1
1
1
RBeamAtt,SBeamAtt,150mm sphere / downward view, WB InGaAs Detector
0
0
0
0
Program
Program
3350/servo 860.8/5
3350/0.2 860.8/0.2
3350/0.2 860.8/0.2
0
9.50
 
 
 
0
 
860.8
319.2
860.8
Front
100
 
S:100 R:100
 
0
0
0
 
0
 
 
 
0
 
 
0
0
0
0
0
 
 
 
 
0
0


0
0
#HDR
-1
-1
#GR
nm
%R
1.0
0.0
1200.000000
-10.000000
91
8
49.102214
5.726253
#DATA
1200.000000	49.102214
1190.000000	48.602330
1180.000000	47.740378
1170.000000	46.516426
1160.000000	44.900695
1150.000000	42.878992
1140.000000	40.526596
1130.000000	37.769906
1120.000000	34.709543
1110.000000	31.443203
1100.000000	28.005668
1090.000000	24.537684
1080.000000	21.188355
1070.000000	18.145490
1060.000000	15.626603
1050.000000	13.785225
1040.000000	12.766516
1030.000000	12.630320
1020.000000	13.387628
1010.000000	14.930513
1000.000000	17.146511
990.000000	19.791142
980.000000	22.631072
970.000000	25.396708
960.000000	27.972391
950.000000	30.094538
940.000000	31.640461
930.000000	32.476271
920.000000	32.616490
910.000000	31.961242
900.000000	30.571722
890.000000	28.508847
880.000000	25.875751
870.000000	22.898844
860.000000	19.872415
850.000000	18.398982
840.000000	16.423020
830.000000	15.153480
820.000000	14.735699
810.000000	15.530253
800.000000	17.719146
790.000000	20.538959
780.000000	22.101050
770.000000	20.498633
760.000000	17.634525
750.000000	16.151927
740.000000	15.558909
730.000000	15.153918
720.000000	14.812729
710.000000	14.422746
700.000000	14.076348
690.000000	13.801219
680.000000	13.612055
670.000000	13.613999
660.000000	13.723929
650.000000	13.881458
640.000000	14.025589
630.000000	14.057566
620.000000	13.992314
610.000000	13.856670
600.000000	13.679713
590.000000	13.588929
580.000000	13.522239
570.000000	13.461878
560.000000	13.330999
550.000000	13.215218
540.000000	13.034848
530.000000	12.782914
520.000000	12.504065
510.000000	12.175326
500.000000	11.779650
490.000000	11.258978
480.000000	10.751761
470.000000	10.172544
460.000000	9.708378
450.000000	9.405937
440.000000	9.277174
430.000000	9.105096
420.000000	8.939576
410.000000	8.652135
400.000000	8.156226
390.000000	7.549314
380.000000	6.935861
370.000000	6.328295
360.000000	6.074764
350.000000	5.747955
340.000000	5.726253
330.000000	5.820945
320.000000	5.915413
310.000000	6.451431
300.000000	6.180179
