PE UV       SUBTECH     SPECTRUM    ASCII       PEDS        4.00        
   -1
8_TR.Sample.asc
23/04/05
09:47:34.00
23/04/05
09:47:34.00
Analyst

300.000000
1
Lambda 950
950L1311181
PerkinElmer UV WinLab 6.0.4.0738 / 1.61.00 Lambda 900

0
0
3350/servo 860.8/5
0
0
UV/VIS
1
1
1
RBeamAtt,SBeamAtt,150mm sphere / downward view, WB InGaAs Detector
0
0
0
0
Program
Program
3350/servo 860.8/5
3350/0.2 860.8/0.2
3350/0.2 860.8/0.2
0
9.50
 
 
 
0
 
860.8
319.2
860.8
Front
100
 
S:100 R:100
 
0
0
0
 
0
 
 
 
0
 
 
0
0
0
0
0
 
 
 
 
0
0


0
0
#HDR
-1
-1
#GR
nm
%R
1.0
0.0
1200.000000
-10.000000
91
8
49.546854
6.374594
#DATA
1200.000000	49.546854
1190.000000	48.106673
1180.000000	46.193443
1170.000000	43.939721
1160.000000	41.240771
1150.000000	38.163120
1140.000000	34.754682
1130.000000	31.069086
1120.000000	27.215621
1110.000000	23.402304
1100.000000	19.786343
1090.000000	16.573568
1080.000000	13.975963
1070.000000	12.251674
1060.000000	11.511041
1050.000000	11.793667
1040.000000	13.107120
1030.000000	15.261487
1020.000000	18.020429
1010.000000	21.156126
1000.000000	24.426510
990.000000	27.568386
980.000000	30.332090
970.000000	32.573729
960.000000	34.195644
950.000000	35.081858
940.000000	35.204471
930.000000	34.427030
920.000000	32.876100
910.000000	30.547059
900.000000	27.591179
890.000000	24.268568
880.000000	20.822581
870.000000	17.748765
860.000000	15.474704
850.000000	14.506577
840.000000	14.251422
830.000000	15.033797
820.000000	16.943602
810.000000	19.687042
800.000000	23.012303
790.000000	25.507456
780.000000	25.115718
770.000000	21.345196
760.000000	17.900814
750.000000	16.611201
740.000000	16.162947
730.000000	15.832316
720.000000	15.494161
710.000000	15.214731
700.000000	15.054165
690.000000	15.003829
680.000000	15.111617
670.000000	15.341942
660.000000	15.601046
650.000000	15.800343
640.000000	15.875691
630.000000	15.824646
620.000000	15.704862
610.000000	15.625536
600.000000	15.591790
590.000000	15.669995
580.000000	15.716173
570.000000	15.772347
560.000000	15.738901
550.000000	15.673989
540.000000	15.613649
530.000000	15.507567
520.000000	15.325790
510.000000	15.176669
500.000000	14.985912
490.000000	14.442656
480.000000	13.790496
470.000000	13.269073
460.000000	12.860621
450.000000	12.509971
440.000000	12.351365
430.000000	12.303485
420.000000	12.321238
410.000000	12.296978
400.000000	12.082910
390.000000	11.637584
380.000000	11.021266
370.000000	10.272175
360.000000	9.612041
350.000000	8.798936
340.000000	8.120187
330.000000	7.563181
320.000000	6.993649
310.000000	7.086140
300.000000	6.374594
