PE UV       SUBTECH     SPECTRUM    ASCII       PEDS        4.00        
   -1
8_TT.Sample.asc
23/04/05
09:18:39.00
23/04/05
09:18:39.00
Analyst

300.000000
1
Lambda 950
950L1311181
PerkinElmer UV WinLab 6.0.4.0738 / 1.61.00 Lambda 900

0
0
3350/servo 860.8/5
0
0
UV/VIS
1
1
1
RBeamAtt,SBeamAtt,150mm sphere / downward view, WB InGaAs Detector
0
0
0
0
Program
Program
3350/servo 860.8/5
3350/0.2 860.8/0.2
3350/0.2 860.8/0.2
0
9.50
 
 
 
0
 
860.8
319.2
860.8
Front
100
 
S:100 R:100
 
0
0
0
 
0
 
 
 
0
 
 
0
0
0
0
0
 
 
 
 
0
0


0
0
#HDR
-1
-1
#GR
nm
%R
1.0
0.0
1200.000000
-10.000000
91
8
73.808039
-1.068508
#DATA
1200.000000	38.922601
1190.000000	40.358245
1180.000000	42.141676
1170.000000	44.203378
1160.000000	46.583086
1150.000000	49.215575
1140.000000	52.090456
1130.000000	55.131390
1120.000000	58.265922
1110.000000	61.319187
1100.000000	64.156597
1090.000000	66.625696
1080.000000	68.603396
1070.000000	69.914383
1060.000000	70.459950
1050.000000	70.165138
1040.000000	69.215603
1030.000000	67.661869
1020.000000	65.709824
1010.000000	63.529524
1000.000000	61.307697
990.000000	59.205925
980.000000	57.465950
970.000000	56.126411
960.000000	55.275940
950.000000	55.074264
940.000000	55.510336
930.000000	56.526814
920.000000	58.217264
910.000000	60.415244
900.000000	63.131335
890.000000	65.993931
880.000000	68.934310
870.000000	71.396587
860.000000	73.331357
850.000000	73.808039
840.000000	73.613339
830.000000	73.446506
820.000000	71.946711
810.000000	69.248699
800.000000	65.818988
790.000000	61.071753
780.000000	52.923448
770.000000	38.539003
760.000000	22.535223
750.000000	13.737905
740.000000	10.854621
730.000000	9.895251
720.000000	9.293042
710.000000	8.718662
700.000000	8.079905
690.000000	7.388246
680.000000	6.617461
670.000000	5.911118
660.000000	5.147687
650.000000	4.410769
640.000000	3.705421
630.000000	3.025597
620.000000	2.402936
610.000000	1.851259
600.000000	1.355246
590.000000	0.963678
580.000000	0.648585
570.000000	0.415795
560.000000	0.234308
550.000000	0.144978
540.000000	0.103518
530.000000	0.070102
520.000000	0.049415
510.000000	0.029982
500.000000	-0.013961
490.000000	-0.038672
480.000000	0.080701
470.000000	0.047805
460.000000	-0.006019
450.000000	-0.045919
440.000000	0.013369
430.000000	0.007983
420.000000	-0.004948
410.000000	-0.017735
400.000000	-0.041659
390.000000	-0.064964
380.000000	-0.078265
370.000000	-0.150916
360.000000	0.040125
350.000000	-0.130352
340.000000	-0.251760
330.000000	-0.505214
320.000000	-1.068508
310.000000	-1.020597
300.000000	-0.092157
