PE UV       SUBTECH     SPECTRUM    ASCII       PEDS        4.00        
   -1
9_TT.Sample.asc
23/04/05
09:21:01.00
23/04/05
09:21:01.00
Analyst

300.000000
1
Lambda 950
950L1311181
PerkinElmer UV WinLab 6.0.4.0738 / 1.61.00 Lambda 900

0
0
3350/servo 860.8/5
0
0
UV/VIS
1
1
1
RBeamAtt,SBeamAtt,150mm sphere / downward view, WB InGaAs Detector
0
0
0
0
Program
Program
3350/servo 860.8/5
3350/0.2 860.8/0.2
3350/0.2 860.8/0.2
0
9.50
 
 
 
0
 
860.8
319.2
860.8
Front
100
 
S:100 R:100
 
0
0
0
 
0
 
 
 
0
 
 
0
0
0
0
0
 
 
 
 
0
0


0
0
#HDR
-1
-1
#GR
nm
%R
1.0
0.0
1200.000000
-10.000000
91
8
76.717592
-1.087385
#DATA
1200.000000	37.521718
1190.000000	38.459909
1180.000000	39.575431
1170.000000	40.827786
1160.000000	42.274284
1150.000000	43.875701
1140.000000	45.662035
1130.000000	47.644239
1120.000000	49.844651
1110.000000	52.212295
1100.000000	54.727123
1090.000000	57.365663
1080.000000	60.149471
1070.000000	62.980025
1060.000000	65.742038
1050.000000	68.308149
1040.000000	70.750269
1030.000000	72.847541
1020.000000	74.551735
1010.000000	75.786997
1000.000000	76.519074
990.000000	76.717592
980.000000	76.489290
970.000000	75.681908
960.000000	74.614089
950.000000	73.219657
940.000000	71.646238
930.000000	69.959822
920.000000	68.276338
910.000000	66.585891
900.000000	65.094409
890.000000	63.785485
880.000000	62.710705
870.000000	61.984984
860.000000	61.517828
850.000000	61.568205
840.000000	60.949081
830.000000	61.885917
820.000000	62.929537
810.000000	64.056323
800.000000	65.800818
790.000000	67.531544
780.000000	68.867914
770.000000	67.632506
760.000000	59.442600
750.000000	43.536621
740.000000	29.893287
730.000000	23.458805
720.000000	21.065579
710.000000	19.896660
700.000000	18.942815
690.000000	17.913660
680.000000	16.745198
670.000000	15.589791
660.000000	14.310030
650.000000	13.020612
640.000000	11.676962
630.000000	10.349590
620.000000	9.031714
610.000000	7.729547
600.000000	6.465174
590.000000	5.231284
580.000000	4.106657
570.000000	3.078966
560.000000	2.189232
550.000000	1.470375
540.000000	0.955473
530.000000	0.569362
520.000000	0.313835
510.000000	0.151566
500.000000	0.040486
490.000000	-0.026043
480.000000	0.058810
470.000000	0.044757
460.000000	-0.023464
450.000000	-0.061399
440.000000	-0.003212
430.000000	-0.016226
420.000000	-0.028388
410.000000	-0.043294
400.000000	-0.056388
390.000000	-0.083438
380.000000	-0.114177
370.000000	-0.166168
360.000000	0.012595
350.000000	-0.155749
340.000000	-0.270559
330.000000	-0.527563
320.000000	-1.087385
310.000000	-1.008566
300.000000	0.211634
