PE UV       SUBTECH     SPECTRUM    ASCII       PEDS        4.00        
   -1
Void_TR.Sample.asc
23/04/05
09:25:43.00
23/04/05
09:25:43.00
Analyst

300.000000
1
Lambda 950
950L1311181
PerkinElmer UV WinLab 6.0.4.0738 / 1.61.00 Lambda 900

0
0
3350/servo 860.8/5
0
0
UV/VIS
1
1
1
RBeamAtt,SBeamAtt,150mm sphere / downward view, WB InGaAs Detector
0
0
0
0
Program
Program
3350/servo 860.8/5
3350/0.2 860.8/0.2
3350/0.2 860.8/0.2
0
9.50
 
 
 
0
 
860.8
319.2
860.8
Front
100
 
S:100 R:100
 
0
0
0
 
0
 
 
 
0
 
 
0
0
0
0
0
 
 
 
 
0
0


0
0
#HDR
-1
-1
#GR
nm
%R
1.0
0.0
1200.000000
-10.000000
91
8
3.738794
0.111435
#DATA
1200.000000	1.217096
1190.000000	1.208701
1180.000000	1.210908
1170.000000	1.209595
1160.000000	1.207320
1150.000000	1.204709
1140.000000	1.196119
1130.000000	1.197444
1120.000000	1.197927
1110.000000	1.194303
1100.000000	1.192712
1090.000000	1.183726
1080.000000	1.184950
1070.000000	1.185787
1060.000000	1.178779
1050.000000	1.177358
1040.000000	1.166591
1030.000000	1.165457
1020.000000	1.166627
1010.000000	1.160033
1000.000000	1.152029
990.000000	1.145361
980.000000	1.144346
970.000000	1.129478
960.000000	1.135724
950.000000	1.134154
940.000000	1.130841
930.000000	1.132379
920.000000	1.076357
910.000000	1.114181
900.000000	1.084077
890.000000	1.084367
880.000000	0.979554
870.000000	0.992890
860.000000	1.102545
850.000000	1.085198
840.000000	1.741261
830.000000	1.752636
820.000000	1.549821
810.000000	1.293919
800.000000	1.110584
790.000000	1.236373
780.000000	1.210021
770.000000	1.196095
760.000000	1.188359
750.000000	1.157464
740.000000	1.143436
730.000000	1.130438
720.000000	1.130245
710.000000	1.094612
700.000000	1.083712
690.000000	1.073943
680.000000	1.049124
670.000000	1.073121
660.000000	1.073666
650.000000	1.068720
640.000000	1.059574
630.000000	1.057357
620.000000	1.052407
610.000000	1.058721
600.000000	1.052393
590.000000	1.046606
580.000000	1.049778
570.000000	1.043770
560.000000	1.020401
550.000000	1.050891
540.000000	1.070503
530.000000	1.065047
520.000000	1.054279
510.000000	1.026537
500.000000	0.962071
490.000000	0.968552
480.000000	1.108612
470.000000	1.074002
460.000000	1.009548
450.000000	0.968467
440.000000	1.035032
430.000000	1.035327
420.000000	1.018848
410.000000	1.019662
400.000000	1.012981
390.000000	0.988557
380.000000	0.971211
370.000000	0.917625
360.000000	1.110898
350.000000	0.955884
340.000000	0.861440
330.000000	0.628794
320.000000	0.111435
310.000000	0.324381
300.000000	3.738794
