PE UV       SUBTECH     SPECTRUM    ASCII       PEDS        4.00        
   -1
10_TT.Sample.asc
23/03/29
09:39:41.00
23/03/29
09:39:41.00
Analyst

300.000000
1
Lambda 950
950L1311181
PerkinElmer UV WinLab 6.0.4.0738 / 1.61.00 Lambda 900

0
0
3350/servo 860.8/5
0
0
UV/VIS
1
1
1
RBeamAtt,SBeamAtt,150mm sphere / downward view, WB InGaAs Detector
0
0
0
0
Program
Program
3350/servo 860.8/5
3350/0.2 860.8/0.2
3350/0.2 860.8/0.2
0
9.50
 
 
 
0
 
860.8
319.2
860.8
Front
100
 
S:100 R:100
 
0
0
0
 
0
 
 
 
0
 
 
0
0
0
0
0
 
 
 
 
0
0


0
0
#HDR
-1
-1
#GR
nm
%R
1.0
0.0
1200.000000
-10.000000
91
8
185.267530
-0.806245
#DATA
1200.000000	45.131990
1190.000000	46.218438
1180.000000	47.494725
1170.000000	48.837487
1160.000000	50.292750
1150.000000	51.916288
1140.000000	53.643557
1130.000000	55.355881
1120.000000	57.380931
1110.000000	59.277026
1100.000000	61.148567
1090.000000	63.114787
1080.000000	65.027408
1070.000000	66.768566
1060.000000	68.552104
1050.000000	69.642581
1040.000000	70.691151
1030.000000	71.446826
1020.000000	71.579251
1010.000000	72.114709
1000.000000	71.875799
990.000000	71.177674
980.000000	70.330460
970.000000	69.324958
960.000000	68.211967
950.000000	67.419690
940.000000	66.525920
930.000000	64.677185
920.000000	63.575439
910.000000	62.453344
900.000000	62.143077
890.000000	61.784825
880.000000	62.627036
870.000000	60.025940
860.000000	60.212447
850.000000	61.955690
840.000000	61.263885
830.000000	62.615845
820.000000	63.068051
810.000000	63.779355
800.000000	64.300511
790.000000	63.675562
780.000000	60.276124
770.000000	53.208892
760.000000	45.440727
750.000000	38.855958
740.000000	34.481291
730.000000	31.611287
720.000000	29.161160
710.000000	27.192480
700.000000	25.467706
690.000000	23.746730
680.000000	22.058951
670.000000	20.422167
660.000000	18.666918
650.000000	16.995662
640.000000	15.274469
630.000000	13.599076
620.000000	11.976588
610.000000	10.349104
600.000000	8.720950
590.000000	7.218237
580.000000	5.885940
570.000000	4.609841
560.000000	3.477925
550.000000	2.563860
540.000000	1.877371
530.000000	1.314676
520.000000	0.874136
510.000000	0.549613
500.000000	0.290035
490.000000	0.177945
480.000000	0.225423
470.000000	0.165184
460.000000	0.080248
450.000000	0.026525
440.000000	0.068753
430.000000	0.049285
420.000000	0.015453
410.000000	0.001304
400.000000	-0.007757
390.000000	-0.042375
380.000000	-0.007147
370.000000	-0.097310
360.000000	0.069724
350.000000	-0.127348
340.000000	-0.170574
330.000000	-0.418257
320.000000	-0.806245
310.000000	9.660687
300.000000	185.267530
