PE UV       SUBTECH     SPECTRUM    ASCII       PEDS        4.00        
   -1
11_TT.Sample.asc
23/03/29
09:43:09.00
23/03/29
09:43:09.00
Analyst

300.000000
1
Lambda 950
950L1311181
PerkinElmer UV WinLab 6.0.4.0738 / 1.61.00 Lambda 900

0
0
3350/servo 860.8/5
0
0
UV/VIS
1
1
1
RBeamAtt,SBeamAtt,150mm sphere / downward view, WB InGaAs Detector
0
0
0
0
Program
Program
3350/servo 860.8/5
3350/0.2 860.8/0.2
3350/0.2 860.8/0.2
0
9.50
 
 
 
0
 
860.8
319.2
860.8
Front
100
 
S:100 R:100
 
0
0
0
 
0
 
 
 
0
 
 
0
0
0
0
0
 
 
 
 
0
0


0
0
#HDR
-1
-1
#GR
nm
%R
1.0
0.0
1200.000000
-10.000000
91
8
73.677004
-139.382211
#DATA
1200.000000	45.067202
1190.000000	45.989724
1180.000000	47.042851
1170.000000	48.313757
1160.000000	49.666481
1150.000000	51.075439
1140.000000	52.539412
1130.000000	54.405387
1120.000000	56.300401
1110.000000	58.196108
1100.000000	60.159859
1090.000000	62.179419
1080.000000	64.269114
1070.000000	66.296960
1060.000000	67.931851
1050.000000	69.557209
1040.000000	71.013378
1030.000000	72.325919
1020.000000	73.186468
1010.000000	73.405416
1000.000000	73.677004
990.000000	73.433560
980.000000	73.035941
970.000000	72.543684
960.000000	71.382811
950.000000	70.516873
940.000000	69.277299
930.000000	67.578519
920.000000	67.475828
910.000000	66.078758
900.000000	65.267693
890.000000	64.313021
880.000000	64.157976
870.000000	62.492695
860.000000	62.725556
850.000000	63.328641
840.000000	62.604007
830.000000	62.734576
820.000000	64.219373
810.000000	64.661007
800.000000	65.165675
790.000000	64.391943
780.000000	61.048108
770.000000	54.879690
760.000000	47.890366
750.000000	41.610677
740.000000	37.029085
730.000000	33.825771
720.000000	31.336737
710.000000	29.113471
700.000000	27.237595
690.000000	25.251539
680.000000	23.511684
670.000000	21.669803
660.000000	19.704272
650.000000	17.871443
640.000000	16.022822
630.000000	14.252718
620.000000	12.647712
610.000000	10.916871
600.000000	9.288952
590.000000	7.712659
580.000000	6.257072
570.000000	4.918497
560.000000	3.731366
550.000000	2.750734
540.000000	2.032953
530.000000	1.428374
520.000000	0.986301
510.000000	0.647752
500.000000	0.366557
490.000000	0.255551
480.000000	0.283103
470.000000	0.231624
460.000000	0.143312
450.000000	0.094272
440.000000	0.137593
430.000000	0.111411
420.000000	0.105132
410.000000	0.093716
400.000000	0.070507
390.000000	0.051393
380.000000	0.014912
370.000000	-0.036748
360.000000	0.116506
350.000000	0.020117
340.000000	-0.148734
330.000000	-0.335432
320.000000	-0.815972
310.000000	-8.367397
300.000000	-139.382211
