PE UV       SUBTECH     SPECTRUM    ASCII       PEDS        4.00        
   -1
11_TR.Sample.asc
23/03/29
10:17:14.00
23/03/29
10:17:14.00
Analyst

300.000000
1
Lambda 950
950L1311181
PerkinElmer UV WinLab 6.0.4.0738 / 1.61.00 Lambda 900

0
0
3350/servo 860.8/5
0
0
UV/VIS
1
1
1
RBeamAtt,SBeamAtt,150mm sphere / downward view, WB InGaAs Detector
0
0
0
0
Program
Program
3350/servo 860.8/5
3350/0.2 860.8/0.2
3350/0.2 860.8/0.2
0
9.50
 
 
 
0
 
860.8
319.2
860.8
Front
100
 
S:100 R:100
 
0
0
0
 
0
 
 
 
0
 
 
0
0
0
0
0
 
 
 
 
0
0


0
0
#HDR
-1
-1
#GR
nm
%R
1.0
0.0
1200.000000
-10.000000
91
8
42.498900
6.806518
#DATA
1200.000000	42.498900
1190.000000	41.638212
1180.000000	40.639739
1170.000000	39.483017
1160.000000	38.111876
1150.000000	36.548151
1140.000000	34.724964
1130.000000	32.834947
1120.000000	30.790148
1110.000000	28.477155
1100.000000	26.230944
1090.000000	23.752997
1080.000000	21.311433
1070.000000	18.919078
1060.000000	16.663652
1050.000000	14.640529
1040.000000	12.758906
1030.000000	11.279972
1020.000000	10.210132
1010.000000	9.457443
1000.000000	9.276177
990.000000	9.421637
980.000000	10.145186
970.000000	11.022359
960.000000	12.158223
950.000000	13.286909
940.000000	15.501619
930.000000	16.874800
920.000000	18.550040
910.000000	19.793340
900.000000	20.978578
890.000000	22.853007
880.000000	23.588656
870.000000	21.984478
860.000000	25.326229
850.000000	23.736439
840.000000	23.923387
830.000000	24.133250
820.000000	23.744232
810.000000	23.040436
800.000000	21.319621
790.000000	19.188551
780.000000	16.730049
770.000000	14.596347
760.000000	12.994019
750.000000	12.175417
740.000000	11.596462
730.000000	11.369594
720.000000	11.140028
710.000000	11.094105
700.000000	11.039316
690.000000	11.258566
680.000000	11.463355
670.000000	11.786692
660.000000	12.013291
650.000000	12.200838
640.000000	12.364707
630.000000	12.408919
620.000000	12.306877
610.000000	12.127823
600.000000	11.866870
590.000000	11.783387
580.000000	11.644820
570.000000	11.634580
560.000000	11.673022
550.000000	11.704431
540.000000	11.766030
530.000000	11.810465
520.000000	11.741135
510.000000	11.660402
500.000000	11.440927
490.000000	11.247132
480.000000	11.004547
470.000000	10.693784
460.000000	10.510765
450.000000	10.359446
440.000000	10.332172
430.000000	10.283331
420.000000	10.418364
410.000000	10.540888
400.000000	10.527488
390.000000	10.381116
380.000000	10.232262
370.000000	9.948847
360.000000	9.602864
350.000000	9.218939
340.000000	8.623246
330.000000	8.147276
320.000000	7.582705
310.000000	7.335634
300.000000	6.806518
