PE UV       SUBTECH     SPECTRUM    ASCII       PEDS        4.00        
   -1
1_TR.Sample.asc
23/03/29
09:48:36.00
23/03/29
09:48:36.00
Analyst

300.000000
1
Lambda 950
950L1311181
PerkinElmer UV WinLab 6.0.4.0738 / 1.61.00 Lambda 900

0
0
3350/servo 860.8/5
0
0
UV/VIS
1
1
1
RBeamAtt,SBeamAtt,150mm sphere / downward view, WB InGaAs Detector
0
0
0
0
Program
Program
3350/servo 860.8/5
3350/0.2 860.8/0.2
3350/0.2 860.8/0.2
0
9.50
 
 
 
0
 
860.8
319.2
860.8
Front
100
 
S:100 R:100
 
0
0
0
 
0
 
 
 
0
 
 
0
0
0
0
0
 
 
 
 
0
0


0
0
#HDR
-1
-1
#GR
nm
%R
1.0
0.0
1200.000000
-10.000000
91
8
35.034827
-19.735402
#DATA
1200.000000	35.034827
1190.000000	35.006734
1180.000000	34.821421
1170.000000	34.536139
1160.000000	34.231891
1150.000000	33.899955
1140.000000	33.420603
1130.000000	32.884093
1120.000000	32.341489
1110.000000	31.749663
1100.000000	31.206921
1090.000000	30.475886
1080.000000	29.780415
1070.000000	28.968988
1060.000000	28.319127
1050.000000	27.443878
1040.000000	26.646258
1030.000000	25.897439
1020.000000	25.135070
1010.000000	24.286383
1000.000000	23.543165
990.000000	23.006144
980.000000	22.418670
970.000000	21.785171
960.000000	21.711344
950.000000	20.951730
940.000000	20.629866
930.000000	20.525896
920.000000	20.290695
910.000000	20.973174
900.000000	20.612882
890.000000	19.983453
880.000000	19.939991
870.000000	20.143050
860.000000	21.661205
850.000000	20.178188
840.000000	20.447083
830.000000	20.514881
820.000000	20.937623
810.000000	21.015410
800.000000	21.280347
790.000000	21.474487
780.000000	21.618097
770.000000	21.555363
760.000000	20.585585
750.000000	19.324015
740.000000	18.038603
730.000000	17.330152
720.000000	16.860767
710.000000	16.743826
700.000000	16.680462
690.000000	16.522476
680.000000	16.515452
670.000000	16.442304
660.000000	16.518286
650.000000	16.467554
640.000000	16.517522
630.000000	16.609695
620.000000	16.595394
610.000000	16.620000
600.000000	16.776932
590.000000	16.853708
580.000000	16.958901
570.000000	17.112365
560.000000	17.180567
550.000000	17.297808
540.000000	17.495991
530.000000	17.597465
520.000000	17.744697
510.000000	17.898934
500.000000	17.996288
490.000000	17.812553
480.000000	17.607136
470.000000	17.338944
460.000000	17.015872
450.000000	16.680396
440.000000	16.615976
430.000000	16.484272
420.000000	16.639797
410.000000	16.962179
400.000000	17.016126
390.000000	17.144645
380.000000	17.044064
370.000000	16.715530
360.000000	16.421555
350.000000	15.360680
340.000000	14.550484
330.000000	13.530620
320.000000	12.164747
310.000000	9.962448
300.000000	-19.735402
