PE UV       SUBTECH     SPECTRUM    ASCII       PEDS        4.00        
   -1
1_TT.Sample.asc
23/03/29
09:14:22.00
23/03/29
09:14:22.00
Analyst

300.000000
1
Lambda 950
950L1311181
PerkinElmer UV WinLab 6.0.4.0738 / 1.61.00 Lambda 900

0
0
3350/servo 860.8/5
0
0
UV/VIS
1
1
1
RBeamAtt,SBeamAtt,150mm sphere / downward view, WB InGaAs Detector
0
0
0
0
Program
Program
3350/servo 860.8/5
3350/0.2 860.8/0.2
3350/0.2 860.8/0.2
0
9.50
 
 
 
0
 
860.8
319.2
860.8
Front
100
 
S:100 R:100
 
0
0
0
 
0
 
 
 
0
 
 
0
0
0
0
0
 
 
 
 
0
0


0
0
#HDR
-1
-1
#GR
nm
%R
1.0
0.0
1200.000000
-10.000000
91
8
71.714611
-0.671694
#DATA
1200.000000	50.906371
1190.000000	51.494529
1180.000000	51.773749
1170.000000	52.373045
1160.000000	53.012140
1150.000000	53.653611
1140.000000	54.329593
1130.000000	54.946365
1120.000000	55.753328
1110.000000	56.637525
1100.000000	57.524305
1090.000000	58.241283
1080.000000	59.187388
1070.000000	60.092196
1060.000000	61.052659
1050.000000	61.731033
1040.000000	62.474247
1030.000000	63.317977
1020.000000	64.448910
1010.000000	65.193647
1000.000000	65.978510
990.000000	66.299171
980.000000	66.915821
970.000000	67.618185
960.000000	68.594060
950.000000	69.013693
940.000000	69.409590
930.000000	69.158863
920.000000	69.071494
910.000000	68.843818
900.000000	69.747124
890.000000	71.151185
880.000000	71.714611
870.000000	69.338169
860.000000	71.031292
850.000000	70.777766
840.000000	68.911266
830.000000	70.052028
820.000000	69.256371
810.000000	70.202236
800.000000	69.744816
790.000000	69.354218
780.000000	68.233069
770.000000	64.909708
760.000000	58.237034
750.000000	45.430737
740.000000	31.843626
730.000000	23.465335
720.000000	20.122431
710.000000	18.834649
700.000000	18.078175
690.000000	17.197698
680.000000	16.217575
670.000000	15.303545
660.000000	14.144244
650.000000	12.949063
640.000000	11.758528
630.000000	10.491709
620.000000	9.260711
610.000000	8.025201
600.000000	6.793337
590.000000	5.590872
580.000000	4.473857
570.000000	3.448795
560.000000	2.548644
550.000000	1.812351
540.000000	1.252859
530.000000	0.794142
520.000000	0.468530
510.000000	0.254586
500.000000	0.069717
490.000000	-0.000697
480.000000	0.076965
470.000000	0.052768
460.000000	-0.012473
450.000000	-0.049223
440.000000	-0.002083
430.000000	-0.013276
420.000000	-0.014498
410.000000	-0.017213
400.000000	-0.064406
390.000000	-0.066277
380.000000	-0.081883
370.000000	-0.130312
360.000000	0.041474
350.000000	-0.021574
340.000000	-0.171127
330.000000	-0.362571
320.000000	-0.671694
310.000000	0.959764
300.000000	21.000200
