PE UV       SUBTECH     SPECTRUM    ASCII       PEDS        4.00        
   -1
2_TR.Sample.asc
23/03/29
09:51:09.00
23/03/29
09:51:09.00
Analyst

300.000000
1
Lambda 950
950L1311181
PerkinElmer UV WinLab 6.0.4.0738 / 1.61.00 Lambda 900

0
0
3350/servo 860.8/5
0
0
UV/VIS
1
1
1
RBeamAtt,SBeamAtt,150mm sphere / downward view, WB InGaAs Detector
0
0
0
0
Program
Program
3350/servo 860.8/5
3350/0.2 860.8/0.2
3350/0.2 860.8/0.2
0
9.50
 
 
 
0
 
860.8
319.2
860.8
Front
100
 
S:100 R:100
 
0
0
0
 
0
 
 
 
0
 
 
0
0
0
0
0
 
 
 
 
0
0


0
0
#HDR
-1
-1
#GR
nm
%R
1.0
0.0
1200.000000
-10.000000
91
8
79.514075
12.888740
#DATA
1200.000000	31.565250
1190.000000	31.643893
1180.000000	31.760663
1170.000000	31.859326
1160.000000	31.881216
1150.000000	31.771761
1140.000000	31.716282
1130.000000	31.478696
1120.000000	31.488336
1110.000000	31.336294
1100.000000	31.071075
1090.000000	30.798788
1080.000000	30.327999
1070.000000	30.110968
1060.000000	29.708355
1050.000000	29.285988
1040.000000	28.938141
1030.000000	28.341584
1020.000000	27.821184
1010.000000	27.559100
1000.000000	27.048180
990.000000	26.371184
980.000000	25.871290
970.000000	25.200801
960.000000	24.998276
950.000000	24.465995
940.000000	23.648410
930.000000	23.172299
920.000000	22.429454
910.000000	22.419878
900.000000	22.445584
890.000000	22.713458
880.000000	21.608206
870.000000	22.070735
860.000000	19.552931
850.000000	19.821235
840.000000	20.099067
830.000000	20.181227
820.000000	20.400931
810.000000	20.254210
800.000000	20.309421
790.000000	20.577271
780.000000	20.651201
770.000000	20.704484
760.000000	20.220984
750.000000	19.423360
740.000000	18.775296
730.000000	18.182073
720.000000	17.884658
710.000000	17.705046
700.000000	17.646370
690.000000	17.639308
680.000000	17.570699
670.000000	17.611850
660.000000	17.570026
650.000000	17.514219
640.000000	17.460921
630.000000	17.493670
620.000000	17.433013
610.000000	17.412798
600.000000	17.461974
590.000000	17.589138
580.000000	17.692252
570.000000	17.815669
560.000000	17.970067
550.000000	18.137997
540.000000	18.279050
530.000000	18.455954
520.000000	18.540135
510.000000	18.691454
500.000000	18.789433
490.000000	18.728584
480.000000	18.439507
470.000000	18.250287
460.000000	17.925111
450.000000	17.528935
440.000000	17.353424
430.000000	17.217556
420.000000	17.402110
410.000000	17.566118
400.000000	17.752047
390.000000	17.894883
380.000000	17.787891
370.000000	17.531385
360.000000	17.053745
350.000000	16.069423
340.000000	15.170761
330.000000	14.020715
320.000000	12.888740
310.000000	15.990547
300.000000	79.514075
