PE UV       SUBTECH     SPECTRUM    ASCII       PEDS        4.00        
   -1
2_TT.Sample.asc
23/03/29
09:17:57.00
23/03/29
09:17:57.00
Analyst

300.000000
1
Lambda 950
950L1311181
PerkinElmer UV WinLab 6.0.4.0738 / 1.61.00 Lambda 900

0
0
3350/servo 860.8/5
0
0
UV/VIS
1
1
1
RBeamAtt,SBeamAtt,150mm sphere / downward view, WB InGaAs Detector
0
0
0
0
Program
Program
3350/servo 860.8/5
3350/0.2 860.8/0.2
3350/0.2 860.8/0.2
0
9.50
 
 
 
0
 
860.8
319.2
860.8
Front
100
 
S:100 R:100
 
0
0
0
 
0
 
 
 
0
 
 
0
0
0
0
0
 
 
 
 
0
0


0
0
#HDR
-1
-1
#GR
nm
%R
1.0
0.0
1200.000000
-10.000000
91
8
70.913150
-812.303071
#DATA
1200.000000	52.435603
1190.000000	52.719371
1180.000000	52.817586
1170.000000	53.110660
1160.000000	53.336673
1150.000000	53.517234
1140.000000	53.900198
1130.000000	54.438840
1120.000000	54.782589
1110.000000	55.203591
1100.000000	55.831989
1090.000000	56.077799
1080.000000	56.587231
1070.000000	57.345222
1060.000000	57.948411
1050.000000	58.437314
1040.000000	59.254474
1030.000000	59.602180
1020.000000	60.438440
1010.000000	61.197486
1000.000000	61.930527
990.000000	62.475145
980.000000	63.034299
970.000000	63.719542
960.000000	64.583803
950.000000	65.714424
940.000000	66.558257
930.000000	66.740244
920.000000	66.603702
910.000000	68.068944
900.000000	69.561778
890.000000	70.030778
880.000000	70.913150
870.000000	69.512955
860.000000	70.505542
850.000000	69.083227
840.000000	69.906677
830.000000	69.907106
820.000000	70.492434
810.000000	70.043139
800.000000	69.823770
790.000000	68.902418
780.000000	67.361775
770.000000	63.815626
760.000000	56.320474
750.000000	43.843223
740.000000	31.274271
730.000000	23.383408
720.000000	20.276602
710.000000	19.142397
700.000000	18.179101
690.000000	17.419878
680.000000	16.529337
670.000000	15.567653
660.000000	14.377974
650.000000	13.257922
640.000000	12.046182
630.000000	10.799197
620.000000	9.633276
610.000000	8.396882
600.000000	7.157809
590.000000	5.989695
580.000000	4.847697
570.000000	3.773094
560.000000	2.834059
550.000000	2.044437
540.000000	1.438006
530.000000	0.938706
520.000000	0.588277
510.000000	0.331633
500.000000	0.127217
490.000000	0.060360
480.000000	0.119965
470.000000	0.084377
460.000000	0.007065
450.000000	-0.028351
440.000000	0.034897
430.000000	0.015532
420.000000	-0.007466
410.000000	-0.021908
400.000000	-0.040003
390.000000	-0.043163
380.000000	-0.102001
370.000000	-0.148597
360.000000	0.042824
350.000000	-0.174591
340.000000	-0.172878
330.000000	-0.277022
320.000000	-0.696928
310.000000	-44.971934
300.000000	-812.303071
