PE UV       SUBTECH     SPECTRUM    ASCII       PEDS        4.00        
   -1
3_TT.Sample.asc
23/03/29
09:20:20.00
23/03/29
09:20:20.00
Analyst

300.000000
1
Lambda 950
950L1311181
PerkinElmer UV WinLab 6.0.4.0738 / 1.61.00 Lambda 900

0
0
3350/servo 860.8/5
0
0
UV/VIS
1
1
1
RBeamAtt,SBeamAtt,150mm sphere / downward view, WB InGaAs Detector
0
0
0
0
Program
Program
3350/servo 860.8/5
3350/0.2 860.8/0.2
3350/0.2 860.8/0.2
0
9.50
 
 
 
0
 
860.8
319.2
860.8
Front
100
 
S:100 R:100
 
0
0
0
 
0
 
 
 
0
 
 
0
0
0
0
0
 
 
 
 
0
0


0
0
#HDR
-1
-1
#GR
nm
%R
1.0
0.0
1200.000000
-10.000000
91
8
71.839861
-0.745759
#DATA
1200.000000	52.313110
1190.000000	52.619692
1180.000000	52.975789
1170.000000	53.371300
1160.000000	53.636054
1150.000000	54.084765
1140.000000	54.757389
1130.000000	55.221694
1120.000000	55.790895
1110.000000	56.302155
1100.000000	56.732008
1090.000000	57.468490
1080.000000	58.315650
1070.000000	59.035215
1060.000000	59.665482
1050.000000	60.321738
1040.000000	61.118236
1030.000000	61.973646
1020.000000	62.806324
1010.000000	63.437344
1000.000000	64.214483
990.000000	64.764312
980.000000	65.747430
970.000000	66.599035
960.000000	67.464199
950.000000	67.829062
940.000000	68.457809
930.000000	68.395130
920.000000	68.845848
910.000000	69.208256
900.000000	70.659469
890.000000	71.303460
880.000000	71.839861
870.000000	69.858238
860.000000	67.693534
850.000000	70.424761
840.000000	69.537805
830.000000	70.293697
820.000000	70.288144
810.000000	70.061533
800.000000	69.857829
790.000000	69.202445
780.000000	67.913710
770.000000	65.005164
760.000000	57.754991
750.000000	44.734982
740.000000	31.234609
730.000000	22.894816
720.000000	19.611677
710.000000	18.308935
700.000000	17.488898
690.000000	16.676670
680.000000	15.813879
670.000000	14.821769
660.000000	13.760587
650.000000	12.613461
640.000000	11.361916
630.000000	10.228981
620.000000	9.053855
610.000000	7.814119
600.000000	6.639642
590.000000	5.487234
580.000000	4.353437
570.000000	3.384389
560.000000	2.501118
550.000000	1.769582
540.000000	1.232627
530.000000	0.785946
520.000000	0.474282
510.000000	0.255022
500.000000	0.076784
490.000000	0.007491
480.000000	0.070103
470.000000	0.051723
460.000000	-0.007327
450.000000	-0.047571
440.000000	0.004340
430.000000	-0.013970
420.000000	-0.023440
410.000000	-0.022255
400.000000	-0.073296
390.000000	-0.057785
380.000000	-0.072353
370.000000	-0.116844
360.000000	-0.061896
350.000000	-0.172134
340.000000	-0.223562
330.000000	-0.379098
320.000000	-0.745759
310.000000	2.892768
300.000000	61.323405
