PE UV       SUBTECH     SPECTRUM    ASCII       PEDS        4.00        
   -1
4_TR.Sample.asc
23/03/29
09:56:48.00
23/03/29
09:56:48.00
Analyst

300.000000
1
Lambda 950
950L1311181
PerkinElmer UV WinLab 6.0.4.0738 / 1.61.00 Lambda 900

0
0
3350/servo 860.8/5
0
0
UV/VIS
1
1
1
RBeamAtt,SBeamAtt,150mm sphere / downward view, WB InGaAs Detector
0
0
0
0
Program
Program
3350/servo 860.8/5
3350/0.2 860.8/0.2
3350/0.2 860.8/0.2
0
9.50
 
 
 
0
 
860.8
319.2
860.8
Front
100
 
S:100 R:100
 
0
0
0
 
0
 
 
 
0
 
 
0
0
0
0
0
 
 
 
 
0
0


0
0
#HDR
-1
-1
#GR
nm
%R
1.0
0.0
1200.000000
-10.000000
91
8
107.214207
12.556167
#DATA
1200.000000	34.839140
1190.000000	34.327483
1180.000000	33.642211
1170.000000	32.901131
1160.000000	32.152523
1150.000000	31.366865
1140.000000	30.478221
1130.000000	29.580620
1120.000000	28.615096
1110.000000	27.772906
1100.000000	26.749674
1090.000000	25.811687
1080.000000	24.824479
1070.000000	23.735644
1060.000000	23.005019
1050.000000	22.216632
1040.000000	21.459429
1030.000000	20.692879
1020.000000	20.281282
1010.000000	19.567331
1000.000000	19.612313
990.000000	19.301162
980.000000	19.276728
970.000000	19.208195
960.000000	19.243168
950.000000	19.585724
940.000000	19.799686
930.000000	20.058036
920.000000	20.337386
910.000000	20.632911
900.000000	21.095077
890.000000	20.508086
880.000000	20.513819
870.000000	23.008138
860.000000	22.865837
850.000000	22.317166
840.000000	22.536596
830.000000	21.580923
820.000000	21.807436
810.000000	21.440746
800.000000	21.081941
790.000000	20.929281
780.000000	20.397610
770.000000	19.189402
760.000000	18.126341
750.000000	16.668641
740.000000	15.813165
730.000000	15.379429
720.000000	15.195264
710.000000	15.083388
700.000000	15.078669
690.000000	15.219133
680.000000	15.193460
670.000000	15.223638
660.000000	15.342271
650.000000	15.384421
640.000000	15.428818
630.000000	15.578115
620.000000	15.578378
610.000000	15.703830
600.000000	15.759799
590.000000	15.737893
580.000000	15.837466
570.000000	16.012316
560.000000	16.130026
550.000000	16.216629
540.000000	16.367842
530.000000	16.457869
520.000000	16.565180
510.000000	16.723533
500.000000	16.733712
490.000000	16.601864
480.000000	16.461606
470.000000	16.253361
460.000000	16.014435
450.000000	15.735236
440.000000	15.666539
430.000000	15.697972
420.000000	15.671301
410.000000	15.971727
400.000000	16.118448
390.000000	16.193911
380.000000	16.188177
370.000000	15.881033
360.000000	15.805019
350.000000	15.021874
340.000000	14.337059
330.000000	13.386099
320.000000	12.556167
310.000000	17.085646
300.000000	107.214207
