PE UV       SUBTECH     SPECTRUM    ASCII       PEDS        4.00        
   -1
4_TT.Sample.asc
23/03/29
09:22:44.00
23/03/29
09:22:44.00
Analyst

300.000000
1
Lambda 950
950L1311181
PerkinElmer UV WinLab 6.0.4.0738 / 1.61.00 Lambda 900

0
0
3350/servo 860.8/5
0
0
UV/VIS
1
1
1
RBeamAtt,SBeamAtt,150mm sphere / downward view, WB InGaAs Detector
0
0
0
0
Program
Program
3350/servo 860.8/5
3350/0.2 860.8/0.2
3350/0.2 860.8/0.2
0
9.50
 
 
 
0
 
860.8
319.2
860.8
Front
100
 
S:100 R:100
 
0
0
0
 
0
 
 
 
0
 
 
0
0
0
0
0
 
 
 
 
0
0


0
0
#HDR
-1
-1
#GR
nm
%R
1.0
0.0
1200.000000
-10.000000
91
8
68.272571
-20.699104
#DATA
1200.000000	48.936182
1190.000000	49.510201
1180.000000	50.038706
1170.000000	50.686568
1160.000000	51.216045
1150.000000	51.957794
1140.000000	52.587843
1130.000000	53.485808
1120.000000	54.284729
1110.000000	55.028069
1100.000000	55.660986
1090.000000	56.700285
1080.000000	57.565774
1070.000000	58.676256
1060.000000	59.592846
1050.000000	60.329364
1040.000000	61.001113
1030.000000	61.918373
1020.000000	62.703818
1010.000000	63.762875
1000.000000	64.481698
990.000000	64.799788
980.000000	65.613995
970.000000	65.698734
960.000000	66.392699
950.000000	67.218591
940.000000	67.291959
930.000000	66.825309
920.000000	67.791872
910.000000	67.406244
900.000000	67.211379
890.000000	67.969738
880.000000	68.158085
870.000000	66.392120
860.000000	66.641364
850.000000	68.272571
840.000000	67.433733
830.000000	66.246753
820.000000	66.328051
810.000000	65.989457
800.000000	65.195089
790.000000	63.700448
780.000000	60.855256
770.000000	55.424615
760.000000	47.570368
750.000000	36.902638
740.000000	27.126595
730.000000	21.818657
720.000000	19.784481
710.000000	18.722423
700.000000	17.745839
690.000000	16.892060
680.000000	15.699179
670.000000	14.577638
660.000000	13.468707
650.000000	12.202575
640.000000	11.043827
630.000000	9.809243
620.000000	8.663768
610.000000	7.441130
600.000000	6.296641
590.000000	5.235478
580.000000	4.231008
570.000000	3.302418
560.000000	2.487315
550.000000	1.807201
540.000000	1.312424
530.000000	0.897203
520.000000	0.603616
510.000000	0.390725
500.000000	0.216828
490.000000	0.136224
480.000000	0.212219
470.000000	0.176417
460.000000	0.110079
450.000000	0.044092
440.000000	0.104606
430.000000	0.071931
420.000000	0.041237
410.000000	0.016778
400.000000	-0.021614
390.000000	-0.035809
380.000000	-0.052324
370.000000	-0.101770
360.000000	0.048132
350.000000	-0.084292
340.000000	-0.164308
330.000000	-0.277680
320.000000	-0.556502
310.000000	-1.595436
300.000000	-20.699104
