PE UV       SUBTECH     SPECTRUM    ASCII       PEDS        4.00        
   -1
5_TR.Sample.asc
23/03/29
09:59:37.00
23/03/29
09:59:37.00
Analyst

300.000000
1
Lambda 950
950L1311181
PerkinElmer UV WinLab 6.0.4.0738 / 1.61.00 Lambda 900

0
0
3350/servo 860.8/5
0
0
UV/VIS
1
1
1
RBeamAtt,SBeamAtt,150mm sphere / downward view, WB InGaAs Detector
0
0
0
0
Program
Program
3350/servo 860.8/5
3350/0.2 860.8/0.2
3350/0.2 860.8/0.2
0
9.50
 
 
 
0
 
860.8
319.2
860.8
Front
100
 
S:100 R:100
 
0
0
0
 
0
 
 
 
0
 
 
0
0
0
0
0
 
 
 
 
0
0


0
0
#HDR
-1
-1
#GR
nm
%R
1.0
0.0
1200.000000
-10.000000
91
8
25.762248
9.491071
#DATA
1200.000000	23.096296
1190.000000	21.576515
1180.000000	20.183836
1170.000000	18.952708
1160.000000	17.788563
1150.000000	16.895013
1140.000000	16.211127
1130.000000	15.769841
1120.000000	15.440249
1110.000000	15.517029
1100.000000	15.710104
1090.000000	16.049788
1080.000000	16.713507
1070.000000	17.431402
1060.000000	18.262211
1050.000000	19.527681
1040.000000	20.412560
1030.000000	21.466054
1020.000000	22.438798
1010.000000	23.305369
1000.000000	23.946330
990.000000	25.024125
980.000000	25.430001
970.000000	25.677559
960.000000	25.641772
950.000000	25.762248
940.000000	24.605803
930.000000	24.309630
920.000000	24.124470
910.000000	23.323884
900.000000	22.159680
890.000000	21.162447
880.000000	19.964973
870.000000	18.675658
860.000000	19.745307
850.000000	17.533627
840.000000	17.862147
830.000000	15.998647
820.000000	15.822446
810.000000	15.679266
800.000000	16.053352
790.000000	16.506317
780.000000	16.873946
770.000000	16.992355
760.000000	16.143375
750.000000	14.940717
740.000000	13.900632
730.000000	13.414966
720.000000	13.277233
710.000000	13.300569
700.000000	13.220876
690.000000	13.093938
680.000000	13.075290
670.000000	12.918706
660.000000	12.889106
650.000000	12.741450
640.000000	12.656187
630.000000	12.629847
620.000000	12.752840
610.000000	12.752436
600.000000	12.912455
590.000000	13.003627
580.000000	13.058302
570.000000	13.086631
560.000000	13.134956
550.000000	13.149319
540.000000	13.233949
530.000000	13.294990
520.000000	13.385958
510.000000	13.420017
500.000000	13.403722
490.000000	13.192161
480.000000	13.011810
470.000000	12.754277
460.000000	12.529862
450.000000	12.328818
440.000000	12.280441
430.000000	12.374115
420.000000	12.470992
410.000000	12.671234
400.000000	12.658818
390.000000	12.691630
380.000000	12.548274
370.000000	12.269936
360.000000	12.076925
350.000000	11.620163
340.000000	10.983544
330.000000	10.267296
320.000000	9.491071
310.000000	9.750012
300.000000	19.411410
