PE UV       SUBTECH     SPECTRUM    ASCII       PEDS        4.00        
   -1
5_TT.Sample.asc
23/03/29
09:25:03.00
23/03/29
09:25:03.00
Analyst

300.000000
1
Lambda 950
950L1311181
PerkinElmer UV WinLab 6.0.4.0738 / 1.61.00 Lambda 900

0
0
3350/servo 860.8/5
0
0
UV/VIS
1
1
1
RBeamAtt,SBeamAtt,150mm sphere / downward view, WB InGaAs Detector
0
0
0
0
Program
Program
3350/servo 860.8/5
3350/0.2 860.8/0.2
3350/0.2 860.8/0.2
0
9.50
 
 
 
0
 
860.8
319.2
860.8
Front
100
 
S:100 R:100
 
0
0
0
 
0
 
 
 
0
 
 
0
0
0
0
0
 
 
 
 
0
0


0
0
#HDR
-1
-1
#GR
nm
%R
1.0
0.0
1200.000000
-10.000000
91
8
70.971181
-180.868439
#DATA
1200.000000	60.172429
1190.000000	61.522829
1180.000000	62.715029
1170.000000	63.731849
1160.000000	64.738197
1150.000000	65.654022
1140.000000	66.306391
1130.000000	66.587876
1120.000000	67.148707
1110.000000	67.149348
1100.000000	67.026438
1090.000000	66.701739
1080.000000	66.428867
1070.000000	66.092028
1060.000000	65.669588
1050.000000	64.923199
1040.000000	64.248728
1030.000000	63.533514
1020.000000	62.977536
1010.000000	62.808935
1000.000000	62.448802
990.000000	61.904065
980.000000	61.752784
970.000000	62.028906
960.000000	61.752026
950.000000	62.878321
940.000000	63.309251
930.000000	63.458944
920.000000	64.147319
910.000000	65.903452
900.000000	65.869488
890.000000	67.457147
880.000000	69.053547
870.000000	68.689806
860.000000	68.692987
850.000000	69.570926
840.000000	68.703731
830.000000	70.836718
820.000000	70.919739
810.000000	70.971181
800.000000	70.405625
790.000000	69.384589
780.000000	66.408231
770.000000	60.954045
760.000000	50.786464
750.000000	37.668346
740.000000	26.942464
730.000000	21.092765
720.000000	18.614757
710.000000	17.445432
700.000000	16.425919
690.000000	15.453174
680.000000	14.294913
670.000000	13.159205
660.000000	11.900023
650.000000	10.737471
640.000000	9.513380
630.000000	8.322046
620.000000	7.190590
610.000000	6.050746
600.000000	4.996990
590.000000	4.008510
580.000000	3.101271
570.000000	2.320344
560.000000	1.652648
550.000000	1.121416
540.000000	0.753146
530.000000	0.468394
520.000000	0.279061
510.000000	0.140584
500.000000	0.006195
490.000000	-0.024475
480.000000	0.068452
470.000000	0.049808
460.000000	-0.019451
450.000000	-0.060964
440.000000	0.005209
430.000000	-0.011367
420.000000	-0.019273
410.000000	-0.042077
400.000000	-0.044710
390.000000	-0.066803
380.000000	-0.074736
370.000000	-0.148240
360.000000	-0.002519
350.000000	-0.100950
340.000000	-0.261344
330.000000	-0.451687
320.000000	-0.729001
310.000000	-10.637103
300.000000	-180.868439
