PE UV       SUBTECH     SPECTRUM    ASCII       PEDS        4.00        
   -1
6_TT.Sample.asc
23/03/29
09:27:32.00
23/03/29
09:27:32.00
Analyst

300.000000
1
Lambda 950
950L1311181
PerkinElmer UV WinLab 6.0.4.0738 / 1.61.00 Lambda 900

0
0
3350/servo 860.8/5
0
0
UV/VIS
1
1
1
RBeamAtt,SBeamAtt,150mm sphere / downward view, WB InGaAs Detector
0
0
0
0
Program
Program
3350/servo 860.8/5
3350/0.2 860.8/0.2
3350/0.2 860.8/0.2
0
9.50
 
 
 
0
 
860.8
319.2
860.8
Front
100
 
S:100 R:100
 
0
0
0
 
0
 
 
 
0
 
 
0
0
0
0
0
 
 
 
 
0
0


0
0
#HDR
-1
-1
#GR
nm
%R
1.0
0.0
1200.000000
-10.000000
91
8
68.969931
-0.713494
#DATA
1200.000000	50.835916
1190.000000	51.953184
1180.000000	53.021919
1170.000000	54.102694
1160.000000	55.234886
1150.000000	56.367030
1140.000000	57.498428
1130.000000	58.771458
1120.000000	60.139215
1110.000000	61.221289
1100.000000	62.339779
1090.000000	63.365767
1080.000000	64.668649
1070.000000	65.607905
1060.000000	66.444531
1050.000000	66.995944
1040.000000	67.546738
1030.000000	68.137291
1020.000000	68.480066
1010.000000	68.833888
1000.000000	68.969931
990.000000	68.591172
980.000000	68.339696
970.000000	68.065117
960.000000	67.701879
950.000000	67.950008
940.000000	67.595381
930.000000	66.801788
920.000000	66.421325
910.000000	64.959186
900.000000	65.645366
890.000000	67.215797
880.000000	66.872816
870.000000	65.681039
860.000000	65.327866
850.000000	66.429241
840.000000	65.633997
830.000000	66.863823
820.000000	67.744079
810.000000	68.429169
800.000000	68.763705
790.000000	68.885472
780.000000	68.339715
770.000000	65.309043
760.000000	58.875776
750.000000	45.739271
740.000000	31.138493
730.000000	22.503161
720.000000	19.118535
710.000000	17.800119
700.000000	16.948627
690.000000	16.047517
680.000000	14.972683
670.000000	13.772775
660.000000	12.610311
650.000000	11.379675
640.000000	10.166776
630.000000	8.914208
620.000000	7.756761
610.000000	6.626883
600.000000	5.505731
590.000000	4.451463
580.000000	3.472141
570.000000	2.622185
560.000000	1.892198
550.000000	1.297816
540.000000	0.876548
530.000000	0.536839
520.000000	0.314445
510.000000	0.159410
500.000000	0.009598
490.000000	-0.021862
480.000000	0.075575
470.000000	0.043538
460.000000	-0.028261
450.000000	-0.052180
440.000000	-0.001823
430.000000	-0.006508
420.000000	-0.023700
410.000000	-0.027472
400.000000	-0.046801
390.000000	-0.072231
380.000000	-0.073147
370.000000	-0.103019
360.000000	0.091045
350.000000	-0.114240
340.000000	-0.249917
330.000000	-0.455819
320.000000	-0.713494
310.000000	0.563287
300.000000	23.767982
