PE UV       SUBTECH     SPECTRUM    ASCII       PEDS        4.00        
   -1
7_TR.Sample.asc
23/03/29
10:04:58.00
23/03/29
10:04:58.00
Analyst

300.000000
1
Lambda 950
950L1311181
PerkinElmer UV WinLab 6.0.4.0738 / 1.61.00 Lambda 900

0
0
3350/servo 860.8/5
0
0
UV/VIS
1
1
1
RBeamAtt,SBeamAtt,150mm sphere / downward view, WB InGaAs Detector
0
0
0
0
Program
Program
3350/servo 860.8/5
3350/0.2 860.8/0.2
3350/0.2 860.8/0.2
0
9.50
 
 
 
0
 
860.8
319.2
860.8
Front
100
 
S:100 R:100
 
0
0
0
 
0
 
 
 
0
 
 
0
0
0
0
0
 
 
 
 
0
0


0
0
#HDR
-1
-1
#GR
nm
%R
1.0
0.0
1200.000000
-10.000000
91
8
40.534476
0.622395
#DATA
1200.000000	40.424162
1190.000000	40.534476
1180.000000	40.524837
1170.000000	40.349773
1160.000000	40.091952
1150.000000	39.647454
1140.000000	39.226373
1130.000000	38.563002
1120.000000	37.648901
1110.000000	36.762377
1100.000000	35.523354
1090.000000	34.163604
1080.000000	32.568088
1070.000000	30.865034
1060.000000	28.951408
1050.000000	26.554815
1040.000000	24.853680
1030.000000	22.627067
1020.000000	20.396624
1010.000000	18.240342
1000.000000	16.167699
990.000000	14.271339
980.000000	12.585893
970.000000	11.525860
960.000000	10.796365
950.000000	10.210885
940.000000	10.448560
930.000000	10.946478
920.000000	11.434009
910.000000	13.052081
900.000000	14.159605
890.000000	14.707915
880.000000	16.231285
870.000000	18.077906
860.000000	19.574102
850.000000	19.150831
840.000000	19.444668
830.000000	21.024807
820.000000	22.367254
810.000000	22.350798
800.000000	22.871097
790.000000	22.931153
780.000000	22.000586
770.000000	20.462360
760.000000	17.857463
750.000000	15.408641
740.000000	13.889662
730.000000	13.157821
720.000000	12.615796
710.000000	12.160895
700.000000	11.828475
690.000000	11.739111
680.000000	11.683874
670.000000	11.819641
660.000000	11.789614
650.000000	11.977421
640.000000	12.048356
630.000000	12.103781
620.000000	12.238622
610.000000	12.189639
600.000000	12.186917
590.000000	12.070883
580.000000	11.873774
570.000000	11.760944
560.000000	11.652492
550.000000	11.621424
540.000000	11.668529
530.000000	11.689878
520.000000	11.722311
510.000000	11.787390
500.000000	11.716390
490.000000	11.419154
480.000000	11.193398
470.000000	10.976957
460.000000	10.733888
450.000000	10.583386
440.000000	10.487735
430.000000	10.555525
420.000000	10.571938
410.000000	10.711976
400.000000	10.671639
390.000000	10.586164
380.000000	10.527675
370.000000	10.053918
360.000000	9.786214
350.000000	9.125271
340.000000	8.729959
330.000000	8.061446
320.000000	7.423016
310.000000	6.716711
300.000000	0.622395
