PE UV       SUBTECH     SPECTRUM    ASCII       PEDS        4.00        
   -1
7_TT.Sample.asc
23/03/29
09:32:34.00
23/03/29
09:32:34.00
Analyst

300.000000
1
Lambda 950
950L1311181
PerkinElmer UV WinLab 6.0.4.0738 / 1.61.00 Lambda 900

0
0
3350/servo 860.8/5
0
0
UV/VIS
1
1
1
RBeamAtt,SBeamAtt,150mm sphere / downward view, WB InGaAs Detector
0
0
0
0
Program
Program
3350/servo 860.8/5
3350/0.2 860.8/0.2
3350/0.2 860.8/0.2
0
9.50
 
 
 
0
 
860.8
319.2
860.8
Front
100
 
S:100 R:100
 
0
0
0
 
0
 
 
 
0
 
 
0
0
0
0
0
 
 
 
 
0
0


0
0
#HDR
-1
-1
#GR
nm
%R
1.0
0.0
1200.000000
-10.000000
91
8
77.104900
-0.560162
#DATA
1200.000000	45.221050
1190.000000	45.543907
1180.000000	45.794303
1170.000000	46.244380
1160.000000	46.766596
1150.000000	47.394770
1140.000000	48.092171
1130.000000	48.917328
1120.000000	50.036338
1110.000000	51.073370
1100.000000	52.374231
1090.000000	53.820947
1080.000000	55.267232
1070.000000	57.038571
1060.000000	59.064903
1050.000000	60.738370
1040.000000	62.712113
1030.000000	64.804796
1020.000000	66.760924
1010.000000	68.726790
1000.000000	71.009620
990.000000	72.406237
980.000000	73.900029
970.000000	74.838539
960.000000	76.255120
950.000000	76.551291
940.000000	77.104900
930.000000	76.226107
920.000000	75.807939
910.000000	74.419505
900.000000	74.826456
890.000000	72.069186
880.000000	72.723975
870.000000	70.449012
860.000000	70.016777
850.000000	70.766810
840.000000	69.869609
830.000000	67.867245
820.000000	67.272203
810.000000	66.353235
800.000000	65.879121
790.000000	64.959579
780.000000	63.880390
770.000000	61.020531
760.000000	54.182480
750.000000	45.068961
740.000000	35.752741
730.000000	29.632830
720.000000	26.071874
710.000000	23.850013
700.000000	21.998353
690.000000	20.058365
680.000000	18.113243
670.000000	16.545906
660.000000	15.022745
650.000000	13.746435
640.000000	12.419142
630.000000	11.091359
620.000000	9.773708
610.000000	8.466458
600.000000	7.252417
590.000000	6.098315
580.000000	5.031210
570.000000	4.084809
560.000000	3.227281
550.000000	2.510530
540.000000	1.950976
530.000000	1.501615
520.000000	1.159908
510.000000	0.920466
500.000000	0.713569
490.000000	0.656560
480.000000	0.720137
470.000000	0.668922
460.000000	0.601071
450.000000	0.560504
440.000000	0.598987
430.000000	0.551937
420.000000	0.532603
410.000000	0.525784
400.000000	0.483526
390.000000	0.439427
380.000000	0.394855
370.000000	0.399499
360.000000	0.495442
350.000000	0.399703
340.000000	0.305854
330.000000	0.036717
320.000000	-0.560162
310.000000	-0.440177
300.000000	4.650935
