PE UV       SUBTECH     SPECTRUM    ASCII       PEDS        4.00        
   -1
8_TT.Sample.asc
23/03/29
09:34:52.00
23/03/29
09:34:52.00
Analyst

300.000000
1
Lambda 950
950L1311181
PerkinElmer UV WinLab 6.0.4.0738 / 1.61.00 Lambda 900

0
0
3350/servo 860.8/5
0
0
UV/VIS
1
1
1
RBeamAtt,SBeamAtt,150mm sphere / downward view, WB InGaAs Detector
0
0
0
0
Program
Program
3350/servo 860.8/5
3350/0.2 860.8/0.2
3350/0.2 860.8/0.2
0
9.50
 
 
 
0
 
860.8
319.2
860.8
Front
100
 
S:100 R:100
 
0
0
0
 
0
 
 
 
0
 
 
0
0
0
0
0
 
 
 
 
0
0


0
0
#HDR
-1
-1
#GR
nm
%R
1.0
0.0
1200.000000
-10.000000
91
8
77.161023
-0.762036
#DATA
1200.000000	42.495784
1190.000000	42.885803
1180.000000	43.323245
1170.000000	43.994394
1160.000000	44.776251
1150.000000	45.702153
1140.000000	46.793547
1130.000000	47.993615
1120.000000	49.459493
1110.000000	50.937739
1100.000000	52.541953
1090.000000	54.320003
1080.000000	56.528591
1070.000000	58.556416
1060.000000	60.944310
1050.000000	63.034125
1040.000000	65.337453
1030.000000	67.518918
1020.000000	69.936018
1010.000000	71.556011
1000.000000	73.639092
990.000000	74.842792
980.000000	75.914748
970.000000	76.276518
960.000000	76.568389
950.000000	76.675734
940.000000	77.161023
930.000000	75.269695
920.000000	74.282310
910.000000	72.635494
900.000000	70.635083
890.000000	69.504010
880.000000	69.545144
870.000000	66.655517
860.000000	64.407238
850.000000	66.841215
840.000000	66.035530
830.000000	64.771580
820.000000	64.824802
810.000000	63.929659
800.000000	64.361948
790.000000	64.220359
780.000000	63.737153
770.000000	61.201813
760.000000	54.706454
750.000000	45.156466
740.000000	35.328615
730.000000	28.776500
720.000000	25.314293
710.000000	23.287516
700.000000	21.731131
690.000000	20.340539
680.000000	18.903902
670.000000	17.476942
660.000000	16.095718
650.000000	14.588786
640.000000	13.052973
630.000000	11.579109
620.000000	10.100248
610.000000	8.677104
600.000000	7.298587
590.000000	5.957451
580.000000	4.762670
570.000000	3.643584
560.000000	2.678902
550.000000	1.864808
540.000000	1.259836
530.000000	0.783156
520.000000	0.463737
510.000000	0.246742
500.000000	0.069106
490.000000	-0.000871
480.000000	0.081569
470.000000	0.046499
460.000000	-0.017532
450.000000	-0.061834
440.000000	0.006337
430.000000	-0.016920
420.000000	-0.028735
410.000000	-0.034774
400.000000	-0.046888
390.000000	-0.072056
380.000000	-0.089824
370.000000	-0.144940
360.000000	0.034097
350.000000	-0.104864
340.000000	-0.143020
330.000000	-0.331676
320.000000	-0.762036
310.000000	0.192992
300.000000	12.316204
