PE UV       SUBTECH     SPECTRUM    ASCII       PEDS        4.00        
   -1
9_TR.Sample.asc
23/03/29
10:11:27.00
23/03/29
10:11:27.00
Analyst

300.000000
1
Lambda 950
950L1311181
PerkinElmer UV WinLab 6.0.4.0738 / 1.61.00 Lambda 900

0
0
3350/servo 860.8/5
0
0
UV/VIS
1
1
1
RBeamAtt,SBeamAtt,150mm sphere / downward view, WB InGaAs Detector
0
0
0
0
Program
Program
3350/servo 860.8/5
3350/0.2 860.8/0.2
3350/0.2 860.8/0.2
0
9.50
 
 
 
0
 
860.8
319.2
860.8
Front
100
 
S:100 R:100
 
0
0
0
 
0
 
 
 
0
 
 
0
0
0
0
0
 
 
 
 
0
0


0
0
#HDR
-1
-1
#GR
nm
%R
1.0
0.0
1200.000000
-10.000000
91
8
55.717907
8.164293
#DATA
1200.000000	47.151763
1190.000000	47.107525
1180.000000	46.776444
1170.000000	46.352972
1160.000000	45.767467
1150.000000	44.930198
1140.000000	44.024108
1130.000000	42.889043
1120.000000	41.556463
1110.000000	40.156625
1100.000000	38.402475
1090.000000	36.524594
1080.000000	34.277335
1070.000000	32.010937
1060.000000	29.528023
1050.000000	26.880216
1040.000000	24.090895
1030.000000	21.541696
1020.000000	18.812771
1010.000000	16.281997
1000.000000	13.949652
990.000000	11.983269
980.000000	10.357952
970.000000	8.980886
960.000000	8.164293
950.000000	8.519964
940.000000	8.919689
930.000000	10.144015
920.000000	11.541171
910.000000	13.072255
900.000000	15.451433
890.000000	17.044808
880.000000	18.428952
870.000000	21.901330
860.000000	22.970602
850.000000	22.598556
840.000000	22.813623
830.000000	25.464453
820.000000	27.047363
810.000000	27.946000
800.000000	28.019626
790.000000	28.109873
780.000000	26.824351
770.000000	24.188682
760.000000	20.697847
750.000000	17.642866
740.000000	15.730804
730.000000	14.824175
720.000000	14.345878
710.000000	13.834902
700.000000	13.473277
690.000000	13.232833
680.000000	13.153424
670.000000	13.357070
660.000000	13.586395
650.000000	14.017870
640.000000	14.626464
630.000000	15.066418
620.000000	15.640181
610.000000	15.926334
600.000000	16.074260
590.000000	15.960986
580.000000	15.771838
570.000000	15.482304
560.000000	15.312918
550.000000	15.320142
540.000000	15.343734
530.000000	15.389248
520.000000	15.396383
510.000000	15.286051
500.000000	15.069939
490.000000	14.890524
480.000000	14.606015
470.000000	14.219078
460.000000	13.884737
450.000000	13.577754
440.000000	13.511749
430.000000	13.413086
420.000000	13.526389
410.000000	13.708370
400.000000	13.747970
390.000000	13.594123
380.000000	13.425338
370.000000	12.917750
360.000000	12.503363
350.000000	11.601229
340.000000	10.910559
330.000000	10.332560
320.000000	9.532871
310.000000	12.019525
300.000000	55.717907
