PE UV       SUBTECH     SPECTRUM    ASCII       PEDS        4.00        
   -1
9_TT.Sample.asc
23/03/29
09:37:13.00
23/03/29
09:37:13.00
Analyst

300.000000
1
Lambda 950
950L1311181
PerkinElmer UV WinLab 6.0.4.0738 / 1.61.00 Lambda 900

0
0
3350/servo 860.8/5
0
0
UV/VIS
1
1
1
RBeamAtt,SBeamAtt,150mm sphere / downward view, WB InGaAs Detector
0
0
0
0
Program
Program
3350/servo 860.8/5
3350/0.2 860.8/0.2
3350/0.2 860.8/0.2
0
9.50
 
 
 
0
 
860.8
319.2
860.8
Front
100
 
S:100 R:100
 
0
0
0
 
0
 
 
 
0
 
 
0
0
0
0
0
 
 
 
 
0
0


0
0
#HDR
-1
-1
#GR
nm
%R
1.0
0.0
1200.000000
-10.000000
91
8
78.404886
-44.586562
#DATA
1200.000000	43.154906
1190.000000	43.497941
1180.000000	43.965018
1170.000000	44.605036
1160.000000	45.309070
1150.000000	46.059895
1140.000000	46.975424
1130.000000	48.068226
1120.000000	49.551720
1110.000000	50.931919
1100.000000	52.544953
1090.000000	54.244335
1080.000000	56.338176
1070.000000	58.420791
1060.000000	60.456649
1050.000000	62.820415
1040.000000	65.238892
1030.000000	67.742973
1020.000000	69.597380
1010.000000	71.888817
1000.000000	73.754479
990.000000	75.472571
980.000000	77.252460
970.000000	77.569448
960.000000	78.404886
950.000000	78.232529
940.000000	77.979889
930.000000	77.833509
920.000000	77.206308
910.000000	75.955602
900.000000	73.984769
890.000000	71.537977
880.000000	70.404276
870.000000	69.444016
860.000000	69.794863
850.000000	67.778428
840.000000	66.949800
830.000000	66.088974
820.000000	64.938750
810.000000	64.921840
800.000000	64.233045
790.000000	64.222815
780.000000	62.735890
770.000000	59.950437
760.000000	53.755065
750.000000	44.427288
740.000000	35.567681
730.000000	29.586609
720.000000	26.177632
710.000000	24.070540
700.000000	22.522260
690.000000	21.151905
680.000000	19.768729
670.000000	18.348134
660.000000	16.713451
650.000000	15.172639
640.000000	13.586629
630.000000	12.071648
620.000000	10.523895
610.000000	9.051401
600.000000	7.628409
590.000000	6.233848
580.000000	5.005605
570.000000	3.902779
560.000000	2.858958
550.000000	2.000883
540.000000	1.379314
530.000000	0.893802
520.000000	0.528142
510.000000	0.306096
500.000000	0.129050
490.000000	0.042853
480.000000	0.113015
470.000000	0.090908
460.000000	0.023028
450.000000	-0.013045
440.000000	0.037155
430.000000	0.015792
420.000000	0.012154
410.000000	-0.015127
400.000000	-0.017518
390.000000	-0.066015
380.000000	-0.068030
370.000000	-0.082504
360.000000	0.054789
350.000000	-0.112875
340.000000	-0.206698
330.000000	-0.341160
320.000000	-0.815491
310.000000	-3.198283
300.000000	-44.586562
