PE UV       SUBTECH     SPECTRUM    ASCII       PEDS        4.00        
   -1
Void_TR.Sample.asc
23/03/29
09:45:28.00
23/03/29
09:45:28.00
Analyst

300.000000
1
Lambda 950
950L1311181
PerkinElmer UV WinLab 6.0.4.0738 / 1.61.00 Lambda 900

0
0
3350/servo 860.8/5
0
0
UV/VIS
1
1
1
RBeamAtt,SBeamAtt,150mm sphere / downward view, WB InGaAs Detector
0
0
0
0
Program
Program
3350/servo 860.8/5
3350/0.2 860.8/0.2
3350/0.2 860.8/0.2
0
9.50
 
 
 
0
 
860.8
319.2
860.8
Front
100
 
S:100 R:100
 
0
0
0
 
0
 
 
 
0
 
 
0
0
0
0
0
 
 
 
 
0
0


0
0
#HDR
-1
-1
#GR
nm
%R
1.0
0.0
1200.000000
-10.000000
91
8
41.195520
-1.960331
#DATA
1200.000000	1.234851
1190.000000	1.204076
1180.000000	1.162607
1170.000000	1.244661
1160.000000	1.185088
1150.000000	1.186168
1140.000000	1.095588
1130.000000	1.092387
1120.000000	1.252024
1110.000000	1.288729
1100.000000	1.240807
1090.000000	1.180074
1080.000000	1.084786
1070.000000	1.206710
1060.000000	1.305496
1050.000000	1.272309
1040.000000	1.389700
1030.000000	1.258042
1020.000000	1.164503
1010.000000	1.363364
1000.000000	1.317169
990.000000	1.245204
980.000000	1.242441
970.000000	0.836298
960.000000	1.349681
950.000000	1.620182
940.000000	1.474618
930.000000	1.590601
920.000000	0.402756
910.000000	1.230616
900.000000	1.973242
890.000000	2.298205
880.000000	2.352811
870.000000	2.560495
860.000000	-1.960331
850.000000	1.130713
840.000000	1.839401
830.000000	0.514608
820.000000	0.964877
810.000000	1.158783
800.000000	0.974429
790.000000	1.080589
780.000000	0.990466
770.000000	1.013070
760.000000	1.051874
750.000000	1.054759
740.000000	1.056771
730.000000	1.017300
720.000000	0.961610
710.000000	1.018230
700.000000	1.006604
690.000000	0.966162
680.000000	0.969351
670.000000	0.965022
660.000000	0.976430
650.000000	0.966780
640.000000	0.990530
630.000000	0.942059
620.000000	0.963145
610.000000	0.975631
600.000000	0.969479
590.000000	0.951007
580.000000	0.957410
570.000000	0.964596
560.000000	0.943085
550.000000	0.970154
540.000000	0.980764
530.000000	0.973321
520.000000	0.958412
510.000000	0.956898
500.000000	0.924202
490.000000	0.936325
480.000000	0.973271
470.000000	0.973951
460.000000	0.947182
450.000000	0.936637
440.000000	0.973744
430.000000	0.964176
420.000000	0.959815
410.000000	0.975152
400.000000	0.985963
390.000000	1.018675
380.000000	1.058035
370.000000	1.008335
360.000000	1.025251
350.000000	0.963712
340.000000	1.119743
330.000000	0.648514
320.000000	0.779566
310.000000	3.260656
300.000000	41.195520
