PE UV       SUBTECH     SPECTRUM    ASCII       PEDS        4.00        
   -1
10_TT.Sample.asc
23/03/29
11:51:32.00
23/03/29
11:51:32.00
Analyst

300.000000
1
Lambda 950
950L1311181
PerkinElmer UV WinLab 6.0.4.0738 / 1.61.00 Lambda 900

0
0
3350/servo 860.8/5
0
0
UV/VIS
1
1
1
RBeamAtt,SBeamAtt,150mm sphere / downward view, WB InGaAs Detector
0
0
0
0
Program
Program
3350/servo 860.8/5
3350/0.2 860.8/0.2
3350/0.2 860.8/0.2
0
9.50
 
 
 
0
 
860.8
319.2
860.8
Front
100
 
S:100 R:100
 
0
0
0
 
0
 
 
 
0
 
 
0
0
0
0
0
 
 
 
 
0
0


0
0
#HDR
-1
-1
#GR
nm
%R
1.0
0.0
1200.000000
-10.000000
91
8
75.597518
-0.655032
#DATA
1200.000000	38.671287
1190.000000	38.500309
1180.000000	38.726400
1170.000000	39.046480
1160.000000	39.742360
1150.000000	40.734610
1140.000000	41.906378
1130.000000	43.726211
1120.000000	45.688207
1110.000000	48.126752
1100.000000	50.783729
1090.000000	53.877979
1080.000000	57.333273
1070.000000	60.881662
1060.000000	64.265814
1050.000000	67.370355
1040.000000	70.232310
1030.000000	72.330548
1020.000000	73.783865
1010.000000	74.246548
1000.000000	73.692058
990.000000	72.374694
980.000000	70.670012
970.000000	68.070647
960.000000	65.941242
950.000000	63.242506
940.000000	61.241329
930.000000	59.870896
920.000000	59.075436
910.000000	57.835924
900.000000	58.055795
890.000000	58.277564
880.000000	60.831201
870.000000	64.070641
860.000000	68.124059
850.000000	67.319408
840.000000	68.421431
830.000000	72.158160
820.000000	74.401634
810.000000	75.597518
800.000000	73.273261
790.000000	67.018182
780.000000	53.917458
770.000000	35.855550
760.000000	21.043238
750.000000	14.259826
740.000000	12.027254
730.000000	11.226774
720.000000	10.604770
710.000000	9.872161
700.000000	9.227788
690.000000	8.463306
680.000000	7.648561
670.000000	6.943680
660.000000	6.044734
650.000000	5.223249
640.000000	4.394209
630.000000	3.618629
620.000000	2.895100
610.000000	2.243604
600.000000	1.670056
590.000000	1.200054
580.000000	0.817766
570.000000	0.515593
560.000000	0.299044
550.000000	0.189841
540.000000	0.133606
530.000000	0.093557
520.000000	0.070680
510.000000	0.046629
500.000000	-0.019458
490.000000	-0.016462
480.000000	0.079658
470.000000	0.064437
460.000000	0.007065
450.000000	-0.028177
440.000000	0.035245
430.000000	0.005293
420.000000	-0.000781
410.000000	-0.010258
400.000000	0.008192
390.000000	-0.017686
380.000000	-0.065824
370.000000	-0.062168
360.000000	0.142686
350.000000	-0.092575
340.000000	-0.187622
330.000000	-0.332615
320.000000	-0.655032
310.000000	0.656559
300.000000	16.819284
