PE UV       SUBTECH     SPECTRUM    ASCII       PEDS        4.00        
   -1
10_TR.Sample.asc
23/03/29
12:20:33.00
23/03/29
12:20:33.00
Analyst

300.000000
1
Lambda 950
950L1311181
PerkinElmer UV WinLab 6.0.4.0738 / 1.61.00 Lambda 900

0
0
3350/servo 860.8/5
0
0
UV/VIS
1
1
1
RBeamAtt,SBeamAtt,150mm sphere / downward view, WB InGaAs Detector
0
0
0
0
Program
Program
3350/servo 860.8/5
3350/0.2 860.8/0.2
3350/0.2 860.8/0.2
0
9.50
 
 
 
0
 
860.8
319.2
860.8
Front
100
 
S:100 R:100
 
0
0
0
 
0
 
 
 
0
 
 
0
0
0
0
0
 
 
 
 
0
0


0
0
#HDR
-1
-1
#GR
nm
%R
1.0
0.0
1200.000000
-10.000000
91
8
123.606377
7.697126
#DATA
1200.000000	50.429242
1190.000000	50.886450
1180.000000	50.843399
1170.000000	50.620395
1160.000000	49.850650
1150.000000	48.718444
1140.000000	47.128900
1130.000000	45.164497
1120.000000	42.634456
1110.000000	39.567921
1100.000000	36.312839
1090.000000	32.484755
1080.000000	28.425344
1070.000000	24.226025
1060.000000	20.085672
1050.000000	16.261396
1040.000000	13.109254
1030.000000	10.600677
1020.000000	9.875927
1010.000000	10.114123
1000.000000	11.413627
990.000000	13.666795
980.000000	16.699399
970.000000	20.058091
960.000000	23.608997
950.000000	26.907250
940.000000	29.965937
930.000000	32.011683
920.000000	33.933061
910.000000	35.081783
900.000000	34.740950
890.000000	33.437049
880.000000	30.943062
870.000000	27.802088
860.000000	27.634661
850.000000	23.593931
840.000000	19.233513
830.000000	17.202945
820.000000	14.601266
810.000000	14.057793
800.000000	15.034353
790.000000	18.243118
780.000000	20.975835
770.000000	20.997656
760.000000	18.915434
750.000000	17.666884
740.000000	17.300222
730.000000	17.199884
720.000000	16.980479
710.000000	16.710200
700.000000	16.440056
690.000000	15.945323
680.000000	15.642087
670.000000	15.415103
660.000000	15.402935
650.000000	15.637013
640.000000	15.897865
630.000000	16.191089
620.000000	16.303373
610.000000	16.321469
600.000000	16.149406
590.000000	16.111638
580.000000	16.151622
570.000000	16.132388
560.000000	16.170999
550.000000	16.137987
540.000000	16.071328
530.000000	15.939951
520.000000	15.771050
510.000000	15.588573
500.000000	15.345402
490.000000	14.863610
480.000000	14.250463
470.000000	13.753654
460.000000	13.339141
450.000000	13.049689
440.000000	12.899134
430.000000	12.915813
420.000000	12.915653
410.000000	12.836585
400.000000	12.646181
390.000000	12.150817
380.000000	11.453180
370.000000	10.589437
360.000000	9.858367
350.000000	9.129913
340.000000	8.423276
330.000000	7.906689
320.000000	7.697126
310.000000	13.685805
300.000000	123.606377
