PE UV       SUBTECH     SPECTRUM    ASCII       PEDS        4.00        
   -1
1_TR.Sample.asc
23/03/29
11:56:28.00
23/03/29
11:56:28.00
Analyst

300.000000
1
Lambda 950
950L1311181
PerkinElmer UV WinLab 6.0.4.0738 / 1.61.00 Lambda 900

0
0
3350/servo 860.8/5
0
0
UV/VIS
1
1
1
RBeamAtt,SBeamAtt,150mm sphere / downward view, WB InGaAs Detector
0
0
0
0
Program
Program
3350/servo 860.8/5
3350/0.2 860.8/0.2
3350/0.2 860.8/0.2
0
9.50
 
 
 
0
 
860.8
319.2
860.8
Front
100
 
S:100 R:100
 
0
0
0
 
0
 
 
 
0
 
 
0
0
0
0
0
 
 
 
 
0
0


0
0
#HDR
-1
-1
#GR
nm
%R
1.0
0.0
1200.000000
-10.000000
91
8
105.357219
8.351387
#DATA
1200.000000	40.198347
1190.000000	40.416768
1180.000000	40.496064
1170.000000	40.389553
1160.000000	39.981921
1150.000000	39.513524
1140.000000	38.732183
1130.000000	37.707417
1120.000000	36.613453
1110.000000	35.478999
1100.000000	33.974853
1090.000000	32.370690
1080.000000	30.409552
1070.000000	28.739396
1060.000000	26.899221
1050.000000	25.039780
1040.000000	23.371079
1030.000000	21.683536
1020.000000	20.268538
1010.000000	19.497528
1000.000000	18.884377
990.000000	18.956283
980.000000	18.992554
970.000000	19.957645
960.000000	21.258083
950.000000	22.416986
940.000000	23.713620
930.000000	24.836205
920.000000	25.339321
910.000000	26.735731
900.000000	27.057025
890.000000	27.511933
880.000000	26.836420
870.000000	25.813366
860.000000	25.928210
850.000000	24.448250
840.000000	22.062579
830.000000	21.881482
820.000000	20.801989
810.000000	19.268805
800.000000	18.737982
790.000000	18.604951
780.000000	18.890482
770.000000	18.407251
760.000000	17.163007
750.000000	16.468187
740.000000	16.249780
730.000000	16.117025
720.000000	16.109738
710.000000	16.134048
700.000000	16.035838
690.000000	15.857139
680.000000	15.731433
670.000000	15.695383
660.000000	15.612226
650.000000	15.589343
640.000000	15.641776
630.000000	15.715793
620.000000	15.823501
610.000000	15.895556
600.000000	15.883559
590.000000	15.886622
580.000000	15.912007
570.000000	15.899148
560.000000	15.918607
550.000000	15.885127
540.000000	15.839872
530.000000	15.709590
520.000000	15.573040
510.000000	15.447291
500.000000	15.265476
490.000000	14.741060
480.000000	14.231352
470.000000	13.726486
460.000000	13.293958
450.000000	13.034731
440.000000	12.962765
430.000000	13.001628
420.000000	12.984584
410.000000	13.127470
400.000000	12.928382
390.000000	12.441317
380.000000	11.980124
370.000000	11.210314
360.000000	10.627575
350.000000	9.815444
340.000000	9.065669
330.000000	8.624788
320.000000	8.351387
310.000000	13.937128
300.000000	105.357219
