PE UV       SUBTECH     SPECTRUM    ASCII       PEDS        4.00        
   -1
1_TT.Sample.asc
23/03/29
11:26:53.00
23/03/29
11:26:53.00
Analyst

300.000000
1
Lambda 950
950L1311181
PerkinElmer UV WinLab 6.0.4.0738 / 1.61.00 Lambda 900

0
0
3350/servo 860.8/5
0
0
UV/VIS
1
1
1
RBeamAtt,SBeamAtt,150mm sphere / downward view, WB InGaAs Detector
0
0
0
0
Program
Program
3350/servo 860.8/5
3350/0.2 860.8/0.2
3350/0.2 860.8/0.2
0
9.50
 
 
 
0
 
860.8
319.2
860.8
Front
100
 
S:100 R:100
 
0
0
0
 
0
 
 
 
0
 
 
0
0
0
0
0
 
 
 
 
0
0


0
0
#HDR
-1
-1
#GR
nm
%R
1.0
0.0
1200.000000
-10.000000
91
8
71.070896
-21.545734
#DATA
1200.000000	43.703435
1190.000000	44.271019
1180.000000	44.768107
1170.000000	45.682473
1160.000000	46.706494
1150.000000	47.703665
1140.000000	49.017919
1130.000000	50.471948
1120.000000	52.029095
1110.000000	53.700575
1100.000000	55.468325
1090.000000	57.190258
1080.000000	59.375652
1070.000000	61.242676
1060.000000	62.901762
1050.000000	64.174191
1040.000000	65.477407
1030.000000	66.397346
1020.000000	67.310669
1010.000000	67.260380
1000.000000	67.030575
990.000000	66.050112
980.000000	65.446952
970.000000	64.470351
960.000000	64.062440
950.000000	63.401915
940.000000	62.941243
930.000000	62.218332
920.000000	62.226131
910.000000	62.111081
900.000000	63.022161
890.000000	64.585544
880.000000	65.902239
870.000000	66.331504
860.000000	65.695214
850.000000	67.513875
840.000000	67.994320
830.000000	69.817185
820.000000	71.070896
810.000000	70.871947
800.000000	69.582669
790.000000	65.162354
780.000000	55.579032
770.000000	38.136763
760.000000	21.533550
750.000000	13.704482
740.000000	11.214951
730.000000	10.266975
720.000000	9.715395
710.000000	9.131126
700.000000	8.403674
690.000000	7.702134
680.000000	6.955182
670.000000	6.237923
660.000000	5.433674
650.000000	4.680033
640.000000	3.910727
630.000000	3.207513
620.000000	2.567427
610.000000	1.953791
600.000000	1.455092
590.000000	1.019517
580.000000	0.686511
570.000000	0.420252
560.000000	0.225834
550.000000	0.133631
540.000000	0.091134
530.000000	0.048479
520.000000	0.030242
510.000000	0.006188
500.000000	-0.049212
490.000000	-0.052608
480.000000	0.043173
470.000000	0.021421
460.000000	-0.024249
450.000000	-0.064095
440.000000	-0.011372
430.000000	-0.022300
420.000000	-0.028128
410.000000	-0.033992
400.000000	-0.055778
390.000000	-0.071093
380.000000	-0.088148
370.000000	-0.124247
360.000000	0.039405
350.000000	-0.131171
340.000000	-0.176195
330.000000	-0.380507
320.000000	-0.849104
310.000000	-1.252092
300.000000	-21.545734
