PE UV       SUBTECH     SPECTRUM    ASCII       PEDS        4.00        
   -1
2_TR.Sample.asc
23/03/29
11:59:06.00
23/03/29
11:59:06.00
Analyst

300.000000
1
Lambda 950
950L1311181
PerkinElmer UV WinLab 6.0.4.0738 / 1.61.00 Lambda 900

0
0
3350/servo 860.8/5
0
0
UV/VIS
1
1
1
RBeamAtt,SBeamAtt,150mm sphere / downward view, WB InGaAs Detector
0
0
0
0
Program
Program
3350/servo 860.8/5
3350/0.2 860.8/0.2
3350/0.2 860.8/0.2
0
9.50
 
 
 
0
 
860.8
319.2
860.8
Front
100
 
S:100 R:100
 
0
0
0
 
0
 
 
 
0
 
 
0
0
0
0
0
 
 
 
 
0
0


0
0
#HDR
-1
-1
#GR
nm
%R
1.0
0.0
1200.000000
-10.000000
91
8
50.847816
-369.921611
#DATA
1200.000000	50.847816
1190.000000	49.265912
1180.000000	47.127566
1170.000000	44.653771
1160.000000	41.587631
1150.000000	38.111732
1140.000000	34.194380
1130.000000	29.909041
1120.000000	25.541810
1110.000000	21.137220
1100.000000	17.024318
1090.000000	13.455143
1080.000000	10.803344
1070.000000	9.524316
1060.000000	9.351625
1050.000000	10.267844
1040.000000	12.656632
1030.000000	15.645899
1020.000000	19.344970
1010.000000	23.026895
1000.000000	26.651900
990.000000	29.929235
980.000000	32.980644
970.000000	34.933494
960.000000	36.874620
950.000000	37.288752
940.000000	37.062598
930.000000	35.740947
920.000000	33.834763
910.000000	31.408717
900.000000	27.285111
890.000000	23.440070
880.000000	19.200012
870.000000	16.137442
860.000000	11.194059
850.000000	12.786984
840.000000	13.227757
830.000000	14.113391
820.000000	17.440044
810.000000	21.288022
800.000000	24.946658
790.000000	27.344538
780.000000	26.057312
770.000000	21.093277
760.000000	17.499877
750.000000	16.506564
740.000000	16.048941
730.000000	15.737753
720.000000	15.490843
710.000000	15.186056
700.000000	15.054337
690.000000	15.133269
680.000000	15.424759
670.000000	15.693048
660.000000	15.978550
650.000000	16.250823
640.000000	16.298129
630.000000	16.084936
620.000000	15.977182
610.000000	15.867307
600.000000	15.939416
590.000000	16.000310
580.000000	16.111511
570.000000	16.123387
560.000000	16.070444
550.000000	16.097226
540.000000	15.991007
530.000000	15.941346
520.000000	15.759372
510.000000	15.569486
500.000000	15.340865
490.000000	14.918744
480.000000	14.354097
470.000000	13.852486
460.000000	13.460035
450.000000	13.182836
440.000000	13.119630
430.000000	13.096640
420.000000	13.097355
410.000000	13.089044
400.000000	12.977885
390.000000	12.460404
380.000000	12.009066
370.000000	11.220393
360.000000	10.579263
350.000000	9.787681
340.000000	9.006600
330.000000	8.339220
320.000000	8.004368
310.000000	-12.371917
300.000000	-369.921611
