PE UV       SUBTECH     SPECTRUM    ASCII       PEDS        4.00        
   -1
2_TT.Sample.asc
23/03/29
11:32:06.00
23/03/29
11:32:06.00
Analyst

300.000000
1
Lambda 950
950L1311181
PerkinElmer UV WinLab 6.0.4.0738 / 1.61.00 Lambda 900

0
0
3350/servo 860.8/5
0
0
UV/VIS
1
1
1
RBeamAtt,SBeamAtt,150mm sphere / downward view, WB InGaAs Detector
0
0
0
0
Program
Program
3350/servo 860.8/5
3350/0.2 860.8/0.2
3350/0.2 860.8/0.2
0
9.50
 
 
 
0
 
860.8
319.2
860.8
Front
100
 
S:100 R:100
 
0
0
0
 
0
 
 
 
0
 
 
0
0
0
0
0
 
 
 
 
0
0


0
0
#HDR
-1
-1
#GR
nm
%R
1.0
0.0
1200.000000
-10.000000
91
8
75.032602
-0.622670
#DATA
1200.000000	39.389531
1190.000000	41.251296
1180.000000	43.444939
1170.000000	45.963191
1160.000000	48.991132
1150.000000	51.883912
1140.000000	55.311108
1130.000000	58.841183
1120.000000	62.332862
1110.000000	65.450441
1100.000000	68.090709
1090.000000	70.039491
1080.000000	71.569419
1070.000000	72.025729
1060.000000	71.543714
1050.000000	70.131194
1040.000000	68.002701
1030.000000	65.850818
1020.000000	63.498099
1010.000000	60.985868
1000.000000	58.622413
990.000000	56.513088
980.000000	54.945456
970.000000	53.982679
960.000000	54.246383
950.000000	54.634320
940.000000	55.853223
930.000000	57.427606
920.000000	59.508997
910.000000	62.292126
900.000000	67.914077
890.000000	71.822285
880.000000	74.638455
870.000000	74.786283
860.000000	73.185338
850.000000	75.032602
840.000000	73.776722
830.000000	72.670546
820.000000	69.967825
810.000000	66.834320
800.000000	63.482199
790.000000	59.699815
780.000000	51.842489
770.000000	36.741872
760.000000	20.917527
750.000000	13.200448
740.000000	10.733442
730.000000	9.853439
720.000000	9.191283
710.000000	8.548147
700.000000	7.876768
690.000000	7.180419
680.000000	6.449463
670.000000	5.684196
660.000000	4.983461
650.000000	4.211057
640.000000	3.512202
630.000000	2.845075
620.000000	2.258757
610.000000	1.710014
600.000000	1.231399
590.000000	0.856545
580.000000	0.570636
570.000000	0.335835
560.000000	0.180230
550.000000	0.099241
540.000000	0.074303
530.000000	0.037231
520.000000	0.026494
510.000000	0.008018
500.000000	-0.053662
490.000000	-0.057486
480.000000	0.031620
470.000000	0.026471
460.000000	-0.026604
450.000000	-0.062442
440.000000	-0.016841
430.000000	-0.007809
420.000000	-0.027954
410.000000	-0.014953
400.000000	-0.025362
390.000000	-0.050168
380.000000	-0.075971
370.000000	-0.100432
360.000000	0.070713
350.000000	-0.071184
340.000000	-0.220613
330.000000	-0.352898
320.000000	-0.622670
310.000000	0.440177
300.000000	21.222512
