PE UV       SUBTECH     SPECTRUM    ASCII       PEDS        4.00        
   -1
3_TT.Sample.asc
23/03/29
11:34:34.00
23/03/29
11:34:34.00
Analyst

300.000000
1
Lambda 950
950L1311181
PerkinElmer UV WinLab 6.0.4.0738 / 1.61.00 Lambda 900

0
0
3350/servo 860.8/5
0
0
UV/VIS
1
1
1
RBeamAtt,SBeamAtt,150mm sphere / downward view, WB InGaAs Detector
0
0
0
0
Program
Program
3350/servo 860.8/5
3350/0.2 860.8/0.2
3350/0.2 860.8/0.2
0
9.50
 
 
 
0
 
860.8
319.2
860.8
Front
100
 
S:100 R:100
 
0
0
0
 
0
 
 
 
0
 
 
0
0
0
0
0
 
 
 
 
0
0


0
0
#HDR
-1
-1
#GR
nm
%R
1.0
0.0
1200.000000
-10.000000
91
8
75.407241
-3.252326
#DATA
1200.000000	38.156285
1190.000000	38.965383
1180.000000	40.131358
1170.000000	41.583029
1160.000000	43.438741
1150.000000	45.614906
1140.000000	48.070730
1130.000000	50.959646
1120.000000	54.129388
1110.000000	57.446805
1100.000000	60.960219
1090.000000	64.367346
1080.000000	67.611947
1070.000000	70.346198
1060.000000	72.447146
1050.000000	73.289694
1040.000000	73.289670
1030.000000	72.744031
1020.000000	71.694408
1010.000000	69.734049
1000.000000	67.371961
990.000000	64.658800
980.000000	61.992601
970.000000	60.032579
960.000000	58.626283
950.000000	57.434112
940.000000	56.959743
930.000000	56.258177
920.000000	57.103431
910.000000	58.541755
900.000000	60.791880
890.000000	64.937918
880.000000	67.734828
870.000000	69.732971
860.000000	71.288101
850.000000	73.582637
840.000000	73.972845
830.000000	75.187872
820.000000	75.407241
810.000000	72.782167
800.000000	68.528470
790.000000	62.069660
780.000000	50.764003
770.000000	34.755657
760.000000	20.153075
750.000000	13.320368
740.000000	11.201702
730.000000	10.430828
720.000000	9.745685
710.000000	9.250863
700.000000	8.467845
690.000000	7.770379
680.000000	7.037714
670.000000	6.247090
660.000000	5.444247
650.000000	4.631147
640.000000	3.875944
630.000000	3.190619
620.000000	2.519483
610.000000	1.922491
600.000000	1.412849
590.000000	1.005448
580.000000	0.665276
570.000000	0.411601
560.000000	0.219543
550.000000	0.122808
540.000000	0.081280
530.000000	0.047781
520.000000	0.029980
510.000000	0.003050
500.000000	-0.059159
490.000000	-0.059751
480.000000	0.039351
470.000000	0.027952
460.000000	-0.022155
450.000000	-0.071748
440.000000	-0.002952
430.000000	-0.001909
420.000000	-0.020662
410.000000	-0.033644
400.000000	-0.041921
390.000000	-0.059010
380.000000	-0.077030
370.000000	-0.163671
360.000000	0.058658
350.000000	-0.032042
340.000000	-0.154079
330.000000	-0.290733
320.000000	-0.604659
310.000000	-0.817883
300.000000	-3.252326
