PE UV       SUBTECH     SPECTRUM    ASCII       PEDS        4.00        
   -1
4_TT.Sample.asc
23/03/29
11:36:55.00
23/03/29
11:36:55.00
Analyst

300.000000
1
Lambda 950
950L1311181
PerkinElmer UV WinLab 6.0.4.0738 / 1.61.00 Lambda 900

0
0
3350/servo 860.8/5
0
0
UV/VIS
1
1
1
RBeamAtt,SBeamAtt,150mm sphere / downward view, WB InGaAs Detector
0
0
0
0
Program
Program
3350/servo 860.8/5
3350/0.2 860.8/0.2
3350/0.2 860.8/0.2
0
9.50
 
 
 
0
 
860.8
319.2
860.8
Front
100
 
S:100 R:100
 
0
0
0
 
0
 
 
 
0
 
 
0
0
0
0
0
 
 
 
 
0
0


0
0
#HDR
-1
-1
#GR
nm
%R
1.0
0.0
1200.000000
-10.000000
91
8
75.915108
-0.779180
#DATA
1200.000000	37.979204
1190.000000	39.208822
1180.000000	40.621721
1170.000000	42.455724
1160.000000	44.629293
1150.000000	47.047098
1140.000000	49.993886
1130.000000	53.174114
1120.000000	56.598967
1110.000000	59.907968
1100.000000	63.423832
1090.000000	66.497584
1080.000000	69.129750
1070.000000	71.321448
1060.000000	72.542720
1050.000000	72.584860
1040.000000	71.955097
1030.000000	70.828453
1020.000000	68.525040
1010.000000	66.480394
1000.000000	64.091477
990.000000	61.415638
980.000000	59.037467
970.000000	56.923909
960.000000	56.145299
950.000000	55.766322
940.000000	55.515681
930.000000	56.101310
920.000000	57.031902
910.000000	58.858452
900.000000	62.856115
890.000000	66.684076
880.000000	70.181300
870.000000	72.194009
860.000000	73.302822
850.000000	74.608947
840.000000	75.915108
830.000000	74.846281
820.000000	74.012499
810.000000	70.808776
800.000000	66.656611
790.000000	60.186325
780.000000	50.285912
770.000000	35.155739
760.000000	20.070799
750.000000	13.080948
740.000000	11.020778
730.000000	10.108125
720.000000	9.471206
710.000000	8.902748
700.000000	8.226068
690.000000	7.520093
680.000000	6.781319
670.000000	6.014460
660.000000	5.219877
650.000000	4.462434
640.000000	3.734899
630.000000	3.053115
620.000000	2.407556
610.000000	1.832077
600.000000	1.337180
590.000000	0.937900
580.000000	0.628486
570.000000	0.373412
560.000000	0.197703
550.000000	0.113119
540.000000	0.075611
530.000000	0.045688
520.000000	0.021875
510.000000	-0.001307
500.000000	-0.056105
490.000000	-0.052608
480.000000	0.038222
470.000000	0.024033
460.000000	-0.031227
450.000000	-0.052267
440.000000	-0.006771
430.000000	-0.006594
420.000000	-0.042278
410.000000	-0.032514
400.000000	-0.044884
390.000000	-0.064176
380.000000	-0.113824
370.000000	-0.148418
360.000000	0.025910
350.000000	-0.115514
340.000000	-0.130764
330.000000	-0.270637
320.000000	-0.779180
310.000000	-0.068919
300.000000	11.152124
