PE UV       SUBTECH     SPECTRUM    ASCII       PEDS        4.00        
   -1
5_TR.Sample.asc
23/03/29
12:06:58.00
23/03/29
12:06:58.00
Analyst

300.000000
1
Lambda 950
950L1311181
PerkinElmer UV WinLab 6.0.4.0738 / 1.61.00 Lambda 900

0
0
3350/servo 860.8/5
0
0
UV/VIS
1
1
1
RBeamAtt,SBeamAtt,150mm sphere / downward view, WB InGaAs Detector
0
0
0
0
Program
Program
3350/servo 860.8/5
3350/0.2 860.8/0.2
3350/0.2 860.8/0.2
0
9.50
 
 
 
0
 
860.8
319.2
860.8
Front
100
 
S:100 R:100
 
0
0
0
 
0
 
 
 
0
 
 
0
0
0
0
0
 
 
 
 
0
0


0
0
#HDR
-1
-1
#GR
nm
%R
1.0
0.0
1200.000000
-10.000000
91
8
78.428299
7.095452
#DATA
1200.000000	48.526013
1190.000000	48.579110
1180.000000	48.301022
1170.000000	47.595842
1160.000000	46.567543
1150.000000	45.146952
1140.000000	43.390077
1130.000000	41.318825
1120.000000	38.648191
1110.000000	35.934418
1100.000000	32.747172
1090.000000	29.328496
1080.000000	25.827619
1070.000000	22.372105
1060.000000	18.882650
1050.000000	16.517978
1040.000000	14.508235
1030.000000	13.221382
1020.000000	12.983792
1010.000000	13.445593
1000.000000	14.873387
990.000000	17.188457
980.000000	19.738237
970.000000	22.312605
960.000000	25.302615
950.000000	27.851602
940.000000	29.988654
930.000000	31.194364
920.000000	32.837747
910.000000	32.562115
900.000000	31.986856
890.000000	30.807820
880.000000	28.570859
870.000000	24.944398
860.000000	24.430202
850.000000	22.057850
840.000000	18.162942
830.000000	17.344454
820.000000	16.149967
810.000000	15.850869
800.000000	17.105840
790.000000	19.350066
780.000000	21.601532
770.000000	20.627788
760.000000	18.293732
750.000000	17.411676
740.000000	16.904028
730.000000	16.879385
720.000000	16.647889
710.000000	16.479006
700.000000	16.072079
690.000000	15.735176
680.000000	15.624235
670.000000	15.510230
660.000000	15.521923
650.000000	15.692151
640.000000	15.863865
630.000000	16.126474
620.000000	16.127812
610.000000	16.189205
600.000000	16.091628
590.000000	16.147291
580.000000	16.134756
570.000000	16.165247
560.000000	16.169688
550.000000	16.128211
540.000000	16.135950
530.000000	16.000636
520.000000	15.843648
510.000000	15.612977
500.000000	15.367652
490.000000	14.883033
480.000000	14.281215
470.000000	13.762536
460.000000	13.288376
450.000000	12.983594
440.000000	12.807463
430.000000	12.738805
420.000000	12.736817
410.000000	12.733827
400.000000	12.430128
390.000000	11.963542
380.000000	11.282620
370.000000	10.475982
360.000000	9.666560
350.000000	8.671133
340.000000	8.092817
330.000000	7.488057
320.000000	7.095452
310.000000	10.981313
300.000000	78.428299
