PE UV       SUBTECH     SPECTRUM    ASCII       PEDS        4.00        
   -1
5_TT.Sample.asc
23/03/29
11:39:14.00
23/03/29
11:39:14.00
Analyst

300.000000
1
Lambda 950
950L1311181
PerkinElmer UV WinLab 6.0.4.0738 / 1.61.00 Lambda 900

0
0
3350/servo 860.8/5
0
0
UV/VIS
1
1
1
RBeamAtt,SBeamAtt,150mm sphere / downward view, WB InGaAs Detector
0
0
0
0
Program
Program
3350/servo 860.8/5
3350/0.2 860.8/0.2
3350/0.2 860.8/0.2
0
9.50
 
 
 
0
 
860.8
319.2
860.8
Front
100
 
S:100 R:100
 
0
0
0
 
0
 
 
 
0
 
 
0
0
0
0
0
 
 
 
 
0
0


0
0
#HDR
-1
-1
#GR
nm
%R
1.0
0.0
1200.000000
-10.000000
91
8
73.432196
-0.627293
#DATA
1200.000000	39.458003
1190.000000	39.724302
1180.000000	40.173244
1170.000000	41.052134
1160.000000	42.076833
1150.000000	43.520312
1140.000000	44.933775
1130.000000	46.952159
1120.000000	49.140358
1110.000000	51.520154
1100.000000	54.213456
1090.000000	57.191475
1080.000000	60.071846
1070.000000	63.045596
1060.000000	65.624925
1050.000000	67.743464
1040.000000	69.418759
1030.000000	70.865301
1020.000000	71.258066
1010.000000	71.090138
1000.000000	70.392297
990.000000	68.740297
980.000000	67.038234
970.000000	64.944661
960.000000	63.060485
950.000000	61.248456
940.000000	60.653014
930.000000	59.297190
920.000000	58.629674
910.000000	58.675929
900.000000	59.041037
890.000000	60.285910
880.000000	63.911542
870.000000	64.762385
860.000000	67.512705
850.000000	68.417092
840.000000	69.581799
830.000000	71.826252
820.000000	73.432196
810.000000	72.925049
800.000000	70.897036
790.000000	65.071486
780.000000	53.305937
770.000000	36.310166
760.000000	20.709792
750.000000	13.743112
740.000000	11.481443
730.000000	10.685683
720.000000	10.043221
710.000000	9.443909
700.000000	8.770709
690.000000	8.051091
680.000000	7.287728
670.000000	6.522526
660.000000	5.755020
650.000000	4.910917
640.000000	4.136294
630.000000	3.386990
620.000000	2.712914
610.000000	2.094425
600.000000	1.552843
590.000000	1.099824
580.000000	0.747594
570.000000	0.477841
560.000000	0.262177
550.000000	0.160950
540.000000	0.103606
530.000000	0.057023
520.000000	0.041746
510.000000	0.028849
500.000000	-0.041970
490.000000	-0.051999
480.000000	0.059505
470.000000	0.042232
460.000000	-0.018753
450.000000	-0.046527
440.000000	0.007552
430.000000	-0.000434
420.000000	-0.008508
410.000000	-0.027298
400.000000	-0.035646
390.000000	-0.031256
380.000000	-0.078706
370.000000	-0.139321
360.000000	0.030858
350.000000	-0.072822
340.000000	-0.166704
330.000000	-0.325572
320.000000	-0.627293
310.000000	0.162672
300.000000	7.599759
