PE UV       SUBTECH     SPECTRUM    ASCII       PEDS        4.00        
   -1
6_TT.Sample.asc
23/03/29
11:41:52.00
23/03/29
11:41:52.00
Analyst

300.000000
1
Lambda 950
950L1311181
PerkinElmer UV WinLab 6.0.4.0738 / 1.61.00 Lambda 900

0
0
3350/servo 860.8/5
0
0
UV/VIS
1
1
1
RBeamAtt,SBeamAtt,150mm sphere / downward view, WB InGaAs Detector
0
0
0
0
Program
Program
3350/servo 860.8/5
3350/0.2 860.8/0.2
3350/0.2 860.8/0.2
0
9.50
 
 
 
0
 
860.8
319.2
860.8
Front
100
 
S:100 R:100
 
0
0
0
 
0
 
 
 
0
 
 
0
0
0
0
0
 
 
 
 
0
0


0
0
#HDR
-1
-1
#GR
nm
%R
1.0
0.0
1200.000000
-10.000000
91
8
615.906409
-0.621225
#DATA
1200.000000	39.815755
1190.000000	40.181730
1180.000000	40.847280
1170.000000	41.654669
1160.000000	42.738616
1150.000000	44.051137
1140.000000	45.657521
1130.000000	47.607216
1120.000000	49.680482
1110.000000	52.040245
1100.000000	54.524337
1090.000000	57.405370
1080.000000	59.820266
1070.000000	62.613874
1060.000000	64.931290
1050.000000	66.564339
1040.000000	67.950543
1030.000000	69.228495
1020.000000	68.800697
1010.000000	68.843557
1000.000000	67.981756
990.000000	66.490354
980.000000	65.024699
970.000000	63.047602
960.000000	62.147108
950.000000	61.312113
940.000000	60.347543
930.000000	59.081078
920.000000	59.001098
910.000000	58.452797
900.000000	60.976365
890.000000	62.756203
880.000000	65.513110
870.000000	66.372363
860.000000	67.476975
850.000000	67.290568
840.000000	68.683269
830.000000	71.305929
820.000000	72.375297
810.000000	71.724475
800.000000	69.699757
790.000000	63.668522
780.000000	52.730513
770.000000	36.022223
760.000000	20.821887
750.000000	13.665852
740.000000	11.402964
730.000000	10.541506
720.000000	9.847870
710.000000	9.289096
700.000000	8.627801
690.000000	7.940903
680.000000	7.158625
670.000000	6.364096
660.000000	5.647125
650.000000	4.836763
640.000000	4.044989
630.000000	3.298775
620.000000	2.645095
610.000000	2.038625
600.000000	1.506324
590.000000	1.056306
580.000000	0.716572
570.000000	0.437380
560.000000	0.242258
550.000000	0.139042
540.000000	0.090088
530.000000	0.043421
520.000000	0.027627
510.000000	0.007583
500.000000	-0.058810
490.000000	-0.064715
480.000000	0.044911
470.000000	0.026123
460.000000	-0.031488
450.000000	-0.054876
440.000000	-0.005903
430.000000	-0.023081
420.000000	-0.032121
410.000000	-0.028949
400.000000	-0.038957
390.000000	-0.059186
380.000000	-0.083383
370.000000	-0.113811
360.000000	0.064056
350.000000	-0.122888
340.000000	-0.239135
330.000000	-0.343038
320.000000	-0.621225
310.000000	32.941917
300.000000	615.906409
