PE UV       SUBTECH     SPECTRUM    ASCII       PEDS        4.00        
   -1
7_TR.Sample.asc
23/03/29
12:12:12.00
23/03/29
12:12:12.00
Analyst

300.000000
1
Lambda 950
950L1311181
PerkinElmer UV WinLab 6.0.4.0738 / 1.61.00 Lambda 900

0
0
3350/servo 860.8/5
0
0
UV/VIS
1
1
1
RBeamAtt,SBeamAtt,150mm sphere / downward view, WB InGaAs Detector
0
0
0
0
Program
Program
3350/servo 860.8/5
3350/0.2 860.8/0.2
3350/0.2 860.8/0.2
0
9.50
 
 
 
0
 
860.8
319.2
860.8
Front
100
 
S:100 R:100
 
0
0
0
 
0
 
 
 
0
 
 
0
0
0
0
0
 
 
 
 
0
0


0
0
#HDR
-1
-1
#GR
nm
%R
1.0
0.0
1200.000000
-10.000000
91
8
50.181516
-28.999562
#DATA
1200.000000	50.181516
1190.000000	49.634800
1180.000000	48.551203
1170.000000	47.242258
1160.000000	45.469311
1150.000000	43.269958
1140.000000	40.708473
1130.000000	37.785974
1120.000000	34.380547
1110.000000	30.950801
1100.000000	27.366843
1090.000000	23.672833
1080.000000	20.228891
1070.000000	16.997906
1060.000000	14.386936
1050.000000	12.503337
1040.000000	11.780343
1030.000000	12.010836
1020.000000	13.315227
1010.000000	15.415541
1000.000000	18.028112
990.000000	21.128326
980.000000	24.096935
970.000000	27.442260
960.000000	30.179975
950.000000	32.141216
940.000000	33.874882
930.000000	34.321626
920.000000	34.549351
910.000000	32.661333
900.000000	31.744207
890.000000	29.341871
880.000000	26.645540
870.000000	22.599884
860.000000	20.133993
850.000000	18.690603
840.000000	14.569374
830.000000	14.614983
820.000000	14.673844
810.000000	16.072815
800.000000	18.902981
790.000000	22.021330
780.000000	23.368185
770.000000	21.143661
760.000000	18.200848
750.000000	16.829459
740.000000	16.344968
730.000000	15.963009
720.000000	15.628762
710.000000	15.272594
700.000000	14.935847
690.000000	14.718647
680.000000	14.639360
670.000000	14.700352
660.000000	14.951075
650.000000	15.120801
640.000000	15.335600
630.000000	15.406824
620.000000	15.336219
610.000000	15.218717
600.000000	15.139081
590.000000	15.069925
580.000000	15.117398
570.000000	15.070266
560.000000	15.010467
550.000000	14.922829
540.000000	14.811230
530.000000	14.627628
520.000000	14.392565
510.000000	14.110301
500.000000	13.844271
490.000000	13.364184
480.000000	12.888805
470.000000	12.407189
460.000000	11.987319
450.000000	11.690653
440.000000	11.558619
430.000000	11.411414
420.000000	11.141177
410.000000	10.874371
400.000000	10.502911
390.000000	9.960601
380.000000	9.328904
370.000000	8.447806
360.000000	7.951811
350.000000	7.288511
340.000000	6.763059
330.000000	6.554914
320.000000	6.536542
310.000000	5.080752
300.000000	-28.999562
