PE UV       SUBTECH     SPECTRUM    ASCII       PEDS        4.00        
   -1
7_TT.Sample.asc
23/03/29
11:44:18.00
23/03/29
11:44:18.00
Analyst

300.000000
1
Lambda 950
950L1311181
PerkinElmer UV WinLab 6.0.4.0738 / 1.61.00 Lambda 900

0
0
3350/servo 860.8/5
0
0
UV/VIS
1
1
1
RBeamAtt,SBeamAtt,150mm sphere / downward view, WB InGaAs Detector
0
0
0
0
Program
Program
3350/servo 860.8/5
3350/0.2 860.8/0.2
3350/0.2 860.8/0.2
0
9.50
 
 
 
0
 
860.8
319.2
860.8
Front
100
 
S:100 R:100
 
0
0
0
 
0
 
 
 
0
 
 
0
0
0
0
0
 
 
 
 
0
0


0
0
#HDR
-1
-1
#GR
nm
%R
1.0
0.0
1200.000000
-10.000000
91
8
73.635126
-0.285186
#DATA
1200.000000	40.358712
1190.000000	40.981710
1180.000000	41.748763
1170.000000	42.917146
1160.000000	44.232034
1150.000000	45.847848
1140.000000	47.764529
1130.000000	49.945911
1120.000000	52.402795
1110.000000	54.824388
1100.000000	57.271737
1090.000000	60.138709
1080.000000	62.611119
1070.000000	64.936691
1060.000000	67.119518
1050.000000	68.587144
1040.000000	69.408921
1030.000000	69.631147
1020.000000	69.629517
1010.000000	68.674300
1000.000000	67.842411
990.000000	65.978429
980.000000	64.266447
970.000000	62.353906
960.000000	61.338454
950.000000	59.946376
940.000000	59.616069
930.000000	59.023866
920.000000	59.241312
910.000000	59.728632
900.000000	61.330946
890.000000	62.224225
880.000000	66.348191
870.000000	67.330279
860.000000	69.129453
850.000000	71.024999
840.000000	71.271038
830.000000	73.138884
820.000000	73.635126
810.000000	73.179185
800.000000	70.155560
790.000000	64.724224
780.000000	54.321540
770.000000	38.362038
760.000000	22.754067
750.000000	15.126728
740.000000	12.251131
730.000000	11.141624
720.000000	10.541893
710.000000	9.780503
700.000000	9.148967
690.000000	8.348391
680.000000	7.603802
670.000000	6.851407
660.000000	6.075499
650.000000	5.222468
640.000000	4.476470
630.000000	3.796191
620.000000	3.119738
610.000000	2.515194
600.000000	2.020127
590.000000	1.570914
580.000000	1.235126
570.000000	0.982161
560.000000	0.779890
550.000000	0.714414
540.000000	0.661924
530.000000	0.642341
520.000000	0.644664
510.000000	0.638077
500.000000	0.606944
490.000000	0.595590
480.000000	0.674792
470.000000	0.664220
460.000000	0.612672
450.000000	0.556068
440.000000	0.597858
430.000000	0.584736
420.000000	0.561512
410.000000	0.525958
400.000000	0.490324
390.000000	0.522251
380.000000	0.475326
370.000000	0.459080
360.000000	0.622834
350.000000	0.509301
340.000000	0.427679
330.000000	0.117758
320.000000	-0.285186
310.000000	0.497256
300.000000	17.629841
