PE UV       SUBTECH     SPECTRUM    ASCII       PEDS        4.00        
   -1
8_TR.Sample.asc
23/03/29
12:14:54.00
23/03/29
12:14:54.00
Analyst

300.000000
1
Lambda 950
950L1311181
PerkinElmer UV WinLab 6.0.4.0738 / 1.61.00 Lambda 900

0
0
3350/servo 860.8/5
0
0
UV/VIS
1
1
1
RBeamAtt,SBeamAtt,150mm sphere / downward view, WB InGaAs Detector
0
0
0
0
Program
Program
3350/servo 860.8/5
3350/0.2 860.8/0.2
3350/0.2 860.8/0.2
0
9.50
 
 
 
0
 
860.8
319.2
860.8
Front
100
 
S:100 R:100
 
0
0
0
 
0
 
 
 
0
 
 
0
0
0
0
0
 
 
 
 
0
0


0
0
#HDR
-1
-1
#GR
nm
%R
1.0
0.0
1200.000000
-10.000000
91
8
48.939109
-40.561581
#DATA
1200.000000	48.939109
1190.000000	47.083077
1180.000000	44.734901
1170.000000	42.056893
1160.000000	38.911857
1150.000000	35.467018
1140.000000	31.811923
1130.000000	27.828854
1120.000000	23.911484
1110.000000	20.065125
1100.000000	16.921003
1090.000000	14.209019
1080.000000	12.418599
1070.000000	11.453894
1060.000000	11.694077
1050.000000	13.041889
1040.000000	14.991948
1030.000000	18.085507
1020.000000	21.329242
1010.000000	24.520931
1000.000000	28.035254
990.000000	30.798931
980.000000	33.421660
970.000000	34.815823
960.000000	36.246819
950.000000	36.292041
940.000000	35.556889
930.000000	34.158923
920.000000	31.810363
910.000000	28.796527
900.000000	24.866554
890.000000	20.755585
880.000000	19.492768
870.000000	16.365277
860.000000	15.887238
850.000000	13.566384
840.000000	13.486841
830.000000	16.337301
820.000000	18.949694
810.000000	22.368144
800.000000	25.478321
790.000000	27.171153
780.000000	25.038165
770.000000	20.704069
760.000000	17.973317
750.000000	16.933003
740.000000	16.675425
730.000000	16.307000
720.000000	16.220686
710.000000	16.077551
700.000000	15.938253
690.000000	16.002222
680.000000	16.160914
670.000000	16.527313
660.000000	16.785641
650.000000	16.926805
640.000000	17.056918
630.000000	17.023599
620.000000	16.864314
610.000000	16.940153
600.000000	17.020611
590.000000	17.180352
580.000000	17.270435
570.000000	17.431421
560.000000	17.463187
550.000000	17.472723
540.000000	17.542735
530.000000	17.564594
520.000000	17.469645
510.000000	17.310536
500.000000	17.135258
490.000000	16.777545
480.000000	16.226280
470.000000	15.794990
460.000000	15.360331
450.000000	15.068024
440.000000	15.067639
430.000000	15.148812
420.000000	15.242700
410.000000	15.410821
400.000000	15.264348
390.000000	14.998642
380.000000	14.412520
370.000000	13.728343
360.000000	12.848292
350.000000	11.778915
340.000000	10.764866
330.000000	9.577651
320.000000	8.726530
310.000000	6.165456
300.000000	-40.561581
