PE UV       SUBTECH     SPECTRUM    ASCII       PEDS        4.00        
   -1
8_TT.Sample.asc
23/03/29
11:46:48.00
23/03/29
11:46:48.00
Analyst

300.000000
1
Lambda 950
950L1311181
PerkinElmer UV WinLab 6.0.4.0738 / 1.61.00 Lambda 900

0
0
3350/servo 860.8/5
0
0
UV/VIS
1
1
1
RBeamAtt,SBeamAtt,150mm sphere / downward view, WB InGaAs Detector
0
0
0
0
Program
Program
3350/servo 860.8/5
3350/0.2 860.8/0.2
3350/0.2 860.8/0.2
0
9.50
 
 
 
0
 
860.8
319.2
860.8
Front
100
 
S:100 R:100
 
0
0
0
 
0
 
 
 
0
 
 
0
0
0
0
0
 
 
 
 
0
0


0
0
#HDR
-1
-1
#GR
nm
%R
1.0
0.0
1200.000000
-10.000000
91
8
74.925762
-17.726134
#DATA
1200.000000	39.313221
1190.000000	40.860132
1180.000000	42.665811
1170.000000	44.880004
1160.000000	47.299414
1150.000000	50.066024
1140.000000	53.158395
1130.000000	56.222743
1120.000000	59.411067
1110.000000	62.509267
1100.000000	65.351559
1090.000000	67.600303
1080.000000	69.429401
1070.000000	70.794266
1060.000000	71.075261
1050.000000	70.485796
1040.000000	69.428875
1030.000000	67.393836
1020.000000	65.367861
1010.000000	62.977364
1000.000000	60.651086
990.000000	58.675075
980.000000	56.965913
970.000000	56.023517
960.000000	55.231561
950.000000	55.117658
940.000000	55.583118
930.000000	56.872912
920.000000	59.035853
910.000000	61.562556
900.000000	64.234110
890.000000	67.735989
880.000000	71.829021
870.000000	73.068441
860.000000	74.925762
850.000000	74.626428
840.000000	74.293788
830.000000	72.942215
820.000000	71.649278
810.000000	68.556399
800.000000	64.571109
790.000000	59.986662
780.000000	50.762108
770.000000	35.028908
760.000000	19.899566
750.000000	12.779804
740.000000	10.686945
730.000000	9.805437
720.000000	9.203109
710.000000	8.633490
700.000000	8.003568
690.000000	7.280379
680.000000	6.515869
670.000000	5.812445
660.000000	5.058857
650.000000	4.281998
640.000000	3.605507
630.000000	2.914393
620.000000	2.295978
610.000000	1.754742
600.000000	1.283591
590.000000	0.903121
580.000000	0.609785
570.000000	0.367906
560.000000	0.210982
550.000000	0.133369
540.000000	0.091222
530.000000	0.060162
520.000000	0.057782
510.000000	0.039918
500.000000	-0.023733
490.000000	-0.024823
480.000000	0.075575
470.000000	0.052855
460.000000	-0.004623
450.000000	-0.042788
440.000000	0.005729
430.000000	0.009024
420.000000	0.006511
410.000000	-0.001739
400.000000	-0.027366
390.000000	-0.032832
380.000000	-0.008029
370.000000	-0.086964
360.000000	0.010616
350.000000	-0.097946
340.000000	-0.094548
330.000000	-0.313740
320.000000	-0.752598
310.000000	-1.612569
300.000000	-17.726134
