PE UV       SUBTECH     SPECTRUM    ASCII       PEDS        4.00        
   -1
9_TT.Sample.asc
23/03/29
11:49:12.00
23/03/29
11:49:12.00
Analyst

300.000000
1
Lambda 950
950L1311181
PerkinElmer UV WinLab 6.0.4.0738 / 1.61.00 Lambda 900

0
0
3350/servo 860.8/5
0
0
UV/VIS
1
1
1
RBeamAtt,SBeamAtt,150mm sphere / downward view, WB InGaAs Detector
0
0
0
0
Program
Program
3350/servo 860.8/5
3350/0.2 860.8/0.2
3350/0.2 860.8/0.2
0
9.50
 
 
 
0
 
860.8
319.2
860.8
Front
100
 
S:100 R:100
 
0
0
0
 
0
 
 
 
0
 
 
0
0
0
0
0
 
 
 
 
0
0


0
0
#HDR
-1
-1
#GR
nm
%R
1.0
0.0
1200.000000
-10.000000
91
8
76.533632
-0.543500
#DATA
1200.000000	37.595668
1190.000000	38.565913
1180.000000	39.775142
1170.000000	41.056093
1160.000000	42.460714
1150.000000	44.090196
1140.000000	46.029363
1130.000000	47.950202
1120.000000	50.282592
1110.000000	52.654198
1100.000000	55.166538
1090.000000	57.792703
1080.000000	60.708184
1070.000000	63.535883
1060.000000	66.312872
1050.000000	68.827451
1040.000000	71.221453
1030.000000	73.173717
1020.000000	74.707710
1010.000000	75.907540
1000.000000	76.459499
990.000000	76.533632
980.000000	76.463878
970.000000	75.383651
960.000000	74.137917
950.000000	72.723767
940.000000	71.086430
930.000000	68.973876
920.000000	67.555080
910.000000	66.220237
900.000000	65.389189
890.000000	63.554896
880.000000	61.812025
870.000000	60.637732
860.000000	61.491051
850.000000	61.503759
840.000000	60.454288
830.000000	61.131466
820.000000	62.145904
810.000000	64.314333
800.000000	65.238437
790.000000	67.098490
780.000000	67.615532
770.000000	64.020481
760.000000	52.789058
750.000000	37.613005
740.000000	27.364987
730.000000	23.070543
720.000000	21.492016
710.000000	20.379020
700.000000	19.126161
690.000000	18.112204
680.000000	16.689831
670.000000	15.491205
660.000000	14.131678
650.000000	12.785039
640.000000	11.438004
630.000000	10.083901
620.000000	8.785720
610.000000	7.465542
600.000000	6.174539
590.000000	5.011774
580.000000	3.883995
570.000000	2.896585
560.000000	2.046568
550.000000	1.361969
540.000000	0.873757
530.000000	0.528207
520.000000	0.287079
510.000000	0.140672
500.000000	0.012216
490.000000	-0.029266
480.000000	0.064804
470.000000	0.045889
460.000000	-0.015613
450.000000	-0.047223
440.000000	-0.009896
430.000000	-0.014924
420.000000	-0.024047
410.000000	-0.041468
400.000000	-0.044535
390.000000	-0.057084
380.000000	-0.067324
370.000000	-0.120679
360.000000	0.002249
350.000000	-0.060807
340.000000	-0.211766
330.000000	-0.290827
320.000000	-0.543500
310.000000	1.208488
300.000000	36.335645
