PE UV       SUBTECH     SPECTRUM    ASCII       PEDS        4.00        
   -1
Void_TR.Sample.asc
23/03/29
11:53:55.00
23/03/29
11:53:55.00
Analyst

300.000000
1
Lambda 950
950L1311181
PerkinElmer UV WinLab 6.0.4.0738 / 1.61.00 Lambda 900

0
0
3350/servo 860.8/5
0
0
UV/VIS
1
1
1
RBeamAtt,SBeamAtt,150mm sphere / downward view, WB InGaAs Detector
0
0
0
0
Program
Program
3350/servo 860.8/5
3350/0.2 860.8/0.2
3350/0.2 860.8/0.2
0
9.50
 
 
 
0
 
860.8
319.2
860.8
Front
100
 
S:100 R:100
 
0
0
0
 
0
 
 
 
0
 
 
0
0
0
0
0
 
 
 
 
0
0


0
0
#HDR
-1
-1
#GR
nm
%R
1.0
0.0
1200.000000
-10.000000
91
8
61.882022
0.169575
#DATA
1200.000000	1.290101
1190.000000	1.308946
1180.000000	1.261566
1170.000000	1.321109
1160.000000	1.303314
1150.000000	1.315204
1140.000000	1.144019
1130.000000	1.247905
1120.000000	1.331948
1110.000000	1.339696
1100.000000	1.415279
1090.000000	1.310059
1080.000000	1.195986
1070.000000	1.202227
1060.000000	1.279201
1050.000000	1.302069
1040.000000	1.287334
1030.000000	1.125090
1020.000000	1.298222
1010.000000	1.488511
1000.000000	1.311661
990.000000	1.325572
980.000000	1.373142
970.000000	1.206082
960.000000	1.188942
950.000000	1.395413
940.000000	1.697063
930.000000	1.465302
920.000000	0.519484
910.000000	1.534966
900.000000	2.087845
890.000000	1.890404
880.000000	2.820527
870.000000	0.686363
860.000000	1.016858
850.000000	0.169575
840.000000	0.899789
830.000000	0.996438
820.000000	1.291357
810.000000	1.062453
800.000000	1.126961
790.000000	1.140840
780.000000	1.121507
770.000000	1.168953
760.000000	1.130307
750.000000	1.093053
740.000000	1.166389
730.000000	1.127130
720.000000	1.083875
710.000000	1.079677
700.000000	1.096306
690.000000	1.096118
680.000000	1.088192
670.000000	1.065857
660.000000	1.112058
650.000000	1.055000
640.000000	1.086704
630.000000	1.071725
620.000000	1.091982
610.000000	1.061076
600.000000	1.080235
590.000000	1.083483
580.000000	1.074246
570.000000	1.064831
560.000000	1.067228
550.000000	1.074981
540.000000	1.082800
530.000000	1.084665
520.000000	1.079466
510.000000	1.062968
500.000000	1.022538
490.000000	1.040148
480.000000	1.073777
470.000000	1.090808
460.000000	1.066768
450.000000	1.045520
440.000000	1.077308
430.000000	1.103701
420.000000	1.065120
410.000000	1.043570
400.000000	1.080437
390.000000	1.089768
380.000000	1.017182
370.000000	1.062030
360.000000	1.235411
350.000000	1.097341
340.000000	1.094954
330.000000	1.006859
320.000000	0.651661
310.000000	4.176528
300.000000	61.882022
