PE UV       SUBTECH     SPECTRUM    ASCII       PEDS        4.00        
   -1
Void_TT.Sample.asc
23/03/29
11:24:29.00
23/03/29
11:24:29.00
Analyst

300.000000
1
Lambda 950
950L1311181
PerkinElmer UV WinLab 6.0.4.0738 / 1.61.00 Lambda 900

0
0
3350/servo 860.8/5
0
0
UV/VIS
1
1
1
RBeamAtt,SBeamAtt,150mm sphere / downward view, WB InGaAs Detector
0
0
0
0
Program
Program
3350/servo 860.8/5
3350/0.2 860.8/0.2
3350/0.2 860.8/0.2
0
9.50
 
 
 
0
 
860.8
319.2
860.8
Front
100
 
S:100 R:100
 
0
0
0
 
0
 
 
 
0
 
 
0
0
0
0
0
 
 
 
 
0
0


0
0
#HDR
-1
-1
#GR
nm
%R
1.0
0.0
1200.000000
-10.000000
91
8
101.859596
65.923260
#DATA
1200.000000	98.579368
1190.000000	98.624991
1180.000000	98.605946
1170.000000	98.806518
1160.000000	98.541648
1150.000000	98.533550
1140.000000	98.984251
1130.000000	98.884570
1120.000000	98.938520
1110.000000	98.757185
1100.000000	98.854278
1090.000000	98.827350
1080.000000	99.140608
1070.000000	99.137902
1060.000000	99.224965
1050.000000	98.808880
1040.000000	99.125161
1030.000000	99.012087
1020.000000	99.283708
1010.000000	99.343950
1000.000000	99.525788
990.000000	98.905974
980.000000	99.485415
970.000000	98.698816
960.000000	99.741804
950.000000	99.756178
940.000000	100.160273
930.000000	98.915160
920.000000	99.851050
910.000000	98.189131
900.000000	101.305812
890.000000	101.859596
880.000000	101.735790
870.000000	97.154633
860.000000	96.582197
850.000000	100.938470
840.000000	98.491369
830.000000	99.058659
820.000000	99.210928
810.000000	98.961635
800.000000	99.587005
790.000000	99.264090
780.000000	99.057939
770.000000	99.296742
760.000000	98.883312
750.000000	99.164681
740.000000	99.177297
730.000000	99.412773
720.000000	99.138006
710.000000	99.088502
700.000000	99.285472
690.000000	99.360990
680.000000	99.289168
670.000000	99.139578
660.000000	99.168647
650.000000	99.052100
640.000000	99.220698
630.000000	99.105545
620.000000	99.231787
610.000000	99.058504
600.000000	99.251360
590.000000	99.225828
580.000000	99.270398
570.000000	99.308328
560.000000	99.265896
550.000000	99.273513
540.000000	99.194006
530.000000	99.198869
520.000000	99.270115
510.000000	99.269166
500.000000	99.605024
490.000000	99.503789
480.000000	99.328544
470.000000	99.389436
460.000000	99.261187
450.000000	99.302540
440.000000	99.209113
430.000000	99.208628
420.000000	99.351407
410.000000	99.191971
400.000000	99.346376
390.000000	99.046895
380.000000	98.911598
370.000000	98.830848
360.000000	98.728515
350.000000	99.173500
340.000000	98.221664
330.000000	98.791546
320.000000	98.761051
310.000000	94.347174
300.000000	65.923260
