PE UV       SUBTECH     SPECTRUM    ASCII       PEDS        4.00        
   -1
10_TT.Sample.asc
23/03/22
10:02:58.00
23/03/22
10:02:58.00
Analyst

300.000000
1
Lambda 950
950L1311181
PerkinElmer UV WinLab 6.0.4.0738 / 1.61.00 Lambda 900

0
0
3350/servo 860.8/5
0
0
UV/VIS
1
1
1
RBeamAtt,SBeamAtt,150mm sphere / downward view, WB InGaAs Detector
0
0
0
0
Program
Program
3350/servo 860.8/5
3350/0.2 860.8/0.2
3350/0.2 860.8/0.2
0
9.50
 
 
 
0
 
860.8
319.2
860.8
Front
100
 
S:100 R:100
 
0
0
0
 
0
 
 
 
0
 
 
0
0
0
0
0
 
 
 
 
0
0


0
0
#HDR
-1
-1
#GR
nm
%R
1.0
0.0
1200.000000
-10.000000
91
8
71.442086
0.005808
#DATA
1200.000000	45.472708
1190.000000	46.763883
1180.000000	48.208645
1170.000000	49.752928
1160.000000	51.428980
1150.000000	53.215486
1140.000000	55.085830
1130.000000	57.053148
1120.000000	59.081502
1110.000000	61.095436
1100.000000	63.058531
1090.000000	64.943807
1080.000000	66.700332
1070.000000	68.248246
1060.000000	69.565095
1050.000000	70.478709
1040.000000	71.150714
1030.000000	71.442086
1020.000000	71.408721
1010.000000	71.059722
1000.000000	70.415863
990.000000	69.564901
980.000000	68.500936
970.000000	67.287954
960.000000	66.059411
950.000000	64.808044
940.000000	63.674689
930.000000	62.598910
920.000000	61.649363
910.000000	60.862350
900.000000	60.306871
890.000000	60.034868
880.000000	59.911558
870.000000	60.083142
860.000000	60.570654
850.000000	60.689475
840.000000	61.455408
830.000000	62.482279
820.000000	63.505623
810.000000	64.642770
800.000000	65.013049
790.000000	63.702085
780.000000	60.133967
770.000000	54.365814
760.000000	47.041403
750.000000	39.887812
740.000000	34.149643
730.000000	30.072544
720.000000	27.171072
710.000000	24.948279
700.000000	23.141966
690.000000	21.526094
680.000000	19.949781
670.000000	18.448836
660.000000	16.909990
650.000000	15.346644
640.000000	13.857327
630.000000	12.306334
620.000000	10.783761
610.000000	9.313584
600.000000	7.851495
590.000000	6.484936
580.000000	5.248403
570.000000	4.099227
560.000000	3.071891
550.000000	2.243578
540.000000	1.589909
530.000000	1.072761
520.000000	0.684328
510.000000	0.406193
500.000000	0.246633
490.000000	0.162215
480.000000	0.128070
470.000000	0.091530
460.000000	0.074739
450.000000	0.068148
440.000000	0.059426
430.000000	0.044270
420.000000	0.043151
410.000000	0.044651
400.000000	0.046925
390.000000	0.039381
380.000000	0.042759
370.000000	0.040408
360.000000	0.041967
350.000000	0.031513
340.000000	0.039388
330.000000	0.042348
320.000000	0.030300
310.000000	0.005808
300.000000	0.065655
