PE UV       SUBTECH     SPECTRUM    ASCII       PEDS        4.00        
   -1
11_TT.Sample.asc
23/03/22
10:05:35.00
23/03/22
10:05:35.00
Analyst

300.000000
1
Lambda 950
950L1311181
PerkinElmer UV WinLab 6.0.4.0738 / 1.61.00 Lambda 900

0
0
3350/servo 860.8/5
0
0
UV/VIS
1
1
1
RBeamAtt,SBeamAtt,150mm sphere / downward view, WB InGaAs Detector
0
0
0
0
Program
Program
3350/servo 860.8/5
3350/0.2 860.8/0.2
3350/0.2 860.8/0.2
0
9.50
 
 
 
0
 
860.8
319.2
860.8
Front
100
 
S:100 R:100
 
0
0
0
 
0
 
 
 
0
 
 
0
0
0
0
0
 
 
 
 
0
0


0
0
#HDR
-1
-1
#GR
nm
%R
1.0
0.0
1200.000000
-10.000000
91
8
72.702873
0.015150
#DATA
1200.000000	44.865644
1190.000000	46.039594
1180.000000	47.360356
1170.000000	48.783030
1160.000000	50.369472
1150.000000	52.084740
1140.000000	53.893179
1130.000000	55.846662
1120.000000	57.851114
1110.000000	59.909218
1100.000000	61.956133
1090.000000	63.996051
1080.000000	65.948981
1070.000000	67.768902
1060.000000	69.372969
1050.000000	70.625324
1040.000000	71.670350
1030.000000	72.366012
1020.000000	72.702873
1010.000000	72.700481
1000.000000	72.384187
990.000000	71.824264
980.000000	70.988495
970.000000	69.960433
960.000000	68.825529
950.000000	67.613000
940.000000	66.451505
930.000000	65.295864
920.000000	64.245036
910.000000	63.292885
900.000000	62.584044
890.000000	62.047744
880.000000	61.670490
870.000000	61.641392
860.000000	61.923103
850.000000	62.134179
840.000000	62.482181
830.000000	63.383729
820.000000	64.293345
810.000000	65.222671
800.000000	65.845398
790.000000	64.740701
780.000000	61.673261
770.000000	56.483737
760.000000	49.579779
750.000000	42.595664
740.000000	36.692250
730.000000	32.235660
720.000000	29.006663
710.000000	26.490593
700.000000	24.505518
690.000000	22.762074
680.000000	21.028627
670.000000	19.333165
660.000000	17.629897
650.000000	15.968750
640.000000	14.399076
630.000000	12.861935
620.000000	11.311560
610.000000	9.805774
600.000000	8.297454
590.000000	6.868253
580.000000	5.547919
570.000000	4.323417
560.000000	3.244843
550.000000	2.328695
540.000000	1.623240
530.000000	1.075468
520.000000	0.677965
510.000000	0.402185
500.000000	0.238170
490.000000	0.148378
480.000000	0.099707
470.000000	0.068952
460.000000	0.057123
450.000000	0.057804
440.000000	0.049883
430.000000	0.034721
420.000000	0.029318
410.000000	0.023023
400.000000	0.037051
390.000000	0.032861
380.000000	0.025691
370.000000	0.023796
360.000000	0.025652
350.000000	0.019364
340.000000	0.028319
330.000000	0.037758
320.000000	0.015150
310.000000	0.029140
300.000000	0.571307
