PE UV       SUBTECH     SPECTRUM    ASCII       PEDS        4.00        
   -1
1_TR.Sample.asc
23/03/22
10:13:48.00
23/03/22
10:13:48.00
Analyst

300.000000
1
Lambda 950
950L1311181
PerkinElmer UV WinLab 6.0.4.0738 / 1.61.00 Lambda 900

0
0
3350/servo 860.8/5
0
0
UV/VIS
1
1
1
RBeamAtt,SBeamAtt,150mm sphere / downward view, WB InGaAs Detector
0
0
0
0
Program
Program
3350/servo 860.8/5
3350/0.2 860.8/0.2
3350/0.2 860.8/0.2
0
9.50
 
 
 
0
 
860.8
319.2
860.8
Front
100
 
S:100 R:100
 
0
0
0
 
0
 
 
 
0
 
 
0
0
0
0
0
 
 
 
 
0
0


0
0
#HDR
-1
-1
#GR
nm
%R
1.0
0.0
1200.000000
-10.000000
91
8
34.832390
16.329873
#DATA
1200.000000	34.832390
1190.000000	34.785729
1180.000000	34.645348
1170.000000	34.466400
1160.000000	34.218748
1150.000000	33.898868
1140.000000	33.539194
1130.000000	33.109691
1120.000000	32.641583
1110.000000	32.111983
1100.000000	31.531279
1090.000000	30.869659
1080.000000	30.193773
1070.000000	29.480572
1060.000000	28.748465
1050.000000	27.972266
1040.000000	27.188008
1030.000000	26.383245
1020.000000	25.590908
1010.000000	24.820991
1000.000000	24.046454
990.000000	23.314927
980.000000	22.623195
970.000000	21.988947
960.000000	21.445275
950.000000	20.952129
940.000000	20.550896
930.000000	20.238419
920.000000	20.018392
910.000000	19.856216
900.000000	19.834999
890.000000	19.861224
880.000000	19.953230
870.000000	20.135328
860.000000	20.313490
850.000000	19.899135
840.000000	20.240666
830.000000	20.554092
820.000000	20.889464
810.000000	21.272935
800.000000	21.629754
790.000000	21.861657
780.000000	22.001091
770.000000	21.904760
760.000000	21.276545
750.000000	20.148879
740.000000	19.019895
730.000000	18.329840
720.000000	17.966740
710.000000	17.739727
700.000000	17.632642
690.000000	17.529883
680.000000	17.486616
670.000000	17.459824
660.000000	17.432700
650.000000	17.424178
640.000000	17.470148
630.000000	17.530248
620.000000	17.636434
610.000000	17.766076
600.000000	17.939330
590.000000	18.172363
580.000000	18.364734
570.000000	18.599915
560.000000	18.855294
550.000000	19.108915
540.000000	19.360913
530.000000	19.663559
520.000000	19.921541
510.000000	20.180188
500.000000	20.476790
490.000000	20.543491
480.000000	20.533502
470.000000	20.324999
460.000000	20.065723
450.000000	19.834863
440.000000	19.697365
430.000000	19.771806
420.000000	20.125206
410.000000	20.626225
400.000000	21.178283
390.000000	21.775834
380.000000	22.237263
370.000000	22.323577
360.000000	22.037570
350.000000	21.340128
340.000000	20.241853
330.000000	19.005934
320.000000	17.621110
310.000000	16.329873
300.000000	17.682573
