PE UV       SUBTECH     SPECTRUM    ASCII       PEDS        4.00        
   -1
1_TT.Sample.asc
23/03/22
09:38:22.00
23/03/22
09:38:22.00
Analyst

300.000000
1
Lambda 950
950L1311181
PerkinElmer UV WinLab 6.0.4.0738 / 1.61.00 Lambda 900

0
0
3350/servo 860.8/5
0
0
UV/VIS
1
1
1
RBeamAtt,SBeamAtt,150mm sphere / downward view, WB InGaAs Detector
0
0
0
0
Program
Program
3350/servo 860.8/5
3350/0.2 860.8/0.2
3350/0.2 860.8/0.2
0
9.50
 
 
 
0
 
860.8
319.2
860.8
Front
100
 
S:100 R:100
 
0
0
0
 
0
 
 
 
0
 
 
0
0
0
0
0
 
 
 
 
0
0


0
0
#HDR
-1
-1
#GR
nm
%R
1.0
0.0
1200.000000
-10.000000
91
8
69.397931
0.003488
#DATA
1200.000000	51.192262
1190.000000	51.525093
1180.000000	51.915045
1170.000000	52.313698
1160.000000	52.770026
1150.000000	53.248586
1140.000000	53.777240
1130.000000	54.347168
1120.000000	54.975268
1110.000000	55.631877
1100.000000	56.283728
1090.000000	56.993709
1080.000000	57.743899
1070.000000	58.507824
1060.000000	59.270392
1050.000000	60.034531
1040.000000	60.846285
1030.000000	61.618825
1020.000000	62.375681
1010.000000	63.151929
1000.000000	63.880854
990.000000	64.566071
980.000000	65.209723
970.000000	65.807339
960.000000	66.406291
950.000000	66.907843
940.000000	67.354008
930.000000	67.718803
920.000000	68.091163
910.000000	68.348973
900.000000	68.633244
890.000000	68.813312
880.000000	68.909203
870.000000	68.947456
860.000000	69.082500
850.000000	69.397931
840.000000	69.119479
830.000000	69.019212
820.000000	68.983189
810.000000	68.880995
800.000000	68.667004
790.000000	67.807283
780.000000	66.347463
770.000000	62.975532
760.000000	55.785626
750.000000	43.852708
740.000000	30.990644
730.000000	22.680308
720.000000	19.150167
710.000000	17.725998
700.000000	16.934478
690.000000	16.202508
680.000000	15.346071
670.000000	14.394670
660.000000	13.360877
650.000000	12.217803
640.000000	11.086279
630.000000	9.917498
620.000000	8.739139
610.000000	7.571608
600.000000	6.393096
590.000000	5.281235
580.000000	4.225396
570.000000	3.252461
560.000000	2.419846
550.000000	1.704509
540.000000	1.145360
530.000000	0.723265
520.000000	0.438929
510.000000	0.246748
500.000000	0.140285
490.000000	0.076060
480.000000	0.047417
470.000000	0.020747
460.000000	0.020320
450.000000	0.026512
440.000000	0.022382
430.000000	0.015277
420.000000	0.007047
410.000000	0.003488
400.000000	0.011447
390.000000	0.009427
380.000000	0.007112
370.000000	0.004669
360.000000	0.007705
350.000000	0.005846
340.000000	0.008763
330.000000	0.018270
320.000000	0.008246
310.000000	0.042824
300.000000	0.760437
