PE UV       SUBTECH     SPECTRUM    ASCII       PEDS        4.00        
   -1
2_TR.Sample.asc
23/03/22
10:17:02.00
23/03/22
10:17:02.00
Analyst

300.000000
1
Lambda 950
950L1311181
PerkinElmer UV WinLab 6.0.4.0738 / 1.61.00 Lambda 900

0
0
3350/servo 860.8/5
0
0
UV/VIS
1
1
1
RBeamAtt,SBeamAtt,150mm sphere / downward view, WB InGaAs Detector
0
0
0
0
Program
Program
3350/servo 860.8/5
3350/0.2 860.8/0.2
3350/0.2 860.8/0.2
0
9.50
 
 
 
0
 
860.8
319.2
860.8
Front
100
 
S:100 R:100
 
0
0
0
 
0
 
 
 
0
 
 
0
0
0
0
0
 
 
 
 
0
0


0
0
#HDR
-1
-1
#GR
nm
%R
1.0
0.0
1200.000000
-10.000000
91
8
33.363817
12.503531
#DATA
1200.000000	33.307371
1190.000000	33.363374
1180.000000	33.363817
1170.000000	33.325527
1160.000000	33.223058
1150.000000	33.075892
1140.000000	32.881986
1130.000000	32.636992
1120.000000	32.363963
1110.000000	32.032764
1100.000000	31.647213
1090.000000	31.206373
1080.000000	30.735429
1070.000000	30.229018
1060.000000	29.699502
1050.000000	29.107283
1040.000000	28.534906
1030.000000	27.907178
1020.000000	27.266495
1010.000000	26.625991
1000.000000	25.972781
990.000000	25.318570
980.000000	24.655344
970.000000	24.058927
960.000000	23.456817
950.000000	22.890619
940.000000	22.367023
930.000000	21.910687
920.000000	21.502122
910.000000	21.150265
900.000000	20.849833
890.000000	20.671534
880.000000	20.512098
870.000000	20.465062
860.000000	20.463622
850.000000	20.134486
840.000000	20.144454
830.000000	20.313920
820.000000	20.512119
810.000000	20.874870
800.000000	21.179778
790.000000	21.401899
780.000000	21.477960
770.000000	21.501651
760.000000	21.028606
750.000000	20.152238
740.000000	19.276577
730.000000	18.723620
720.000000	18.397348
710.000000	18.214351
700.000000	18.082453
690.000000	18.033930
680.000000	17.975544
670.000000	17.957744
660.000000	17.922054
650.000000	17.912734
640.000000	17.949508
630.000000	17.953571
620.000000	18.022894
610.000000	18.112484
600.000000	18.260054
590.000000	18.471431
580.000000	18.698511
570.000000	18.925930
560.000000	19.197266
550.000000	19.463523
540.000000	19.706955
530.000000	20.001531
520.000000	20.280268
510.000000	20.636393
500.000000	20.954788
490.000000	21.024304
480.000000	20.956865
470.000000	20.784652
460.000000	20.570061
450.000000	20.277215
440.000000	20.161754
430.000000	20.222662
420.000000	20.548626
410.000000	21.037849
400.000000	21.605592
390.000000	22.208052
380.000000	22.697030
370.000000	22.859303
360.000000	22.550601
350.000000	21.845521
340.000000	20.748822
330.000000	19.467457
320.000000	17.950866
310.000000	16.375355
300.000000	12.503531
