PE UV       SUBTECH     SPECTRUM    ASCII       PEDS        4.00        
   -1
2_TT.Sample.asc
23/03/22
09:42:16.00
23/03/22
09:42:16.00
Analyst

300.000000
1
Lambda 950
950L1311181
PerkinElmer UV WinLab 6.0.4.0738 / 1.61.00 Lambda 900

0
0
3350/servo 860.8/5
0
0
UV/VIS
1
1
1
RBeamAtt,SBeamAtt,150mm sphere / downward view, WB InGaAs Detector
0
0
0
0
Program
Program
3350/servo 860.8/5
3350/0.2 860.8/0.2
3350/0.2 860.8/0.2
0
9.50
 
 
 
0
 
860.8
319.2
860.8
Front
100
 
S:100 R:100
 
0
0
0
 
0
 
 
 
0
 
 
0
0
0
0
0
 
 
 
 
0
0


0
0
#HDR
-1
-1
#GR
nm
%R
1.0
0.0
1200.000000
-10.000000
91
8
69.013680
0.000274
#DATA
1200.000000	51.899716
1190.000000	52.119785
1180.000000	52.340462
1170.000000	52.604592
1160.000000	52.894369
1150.000000	53.194235
1140.000000	53.553724
1130.000000	53.936150
1120.000000	54.351349
1110.000000	54.794690
1100.000000	55.262989
1090.000000	55.758062
1080.000000	56.314427
1070.000000	56.882959
1060.000000	57.466943
1050.000000	58.038032
1040.000000	58.697350
1030.000000	59.329919
1020.000000	59.993782
1010.000000	60.656838
1000.000000	61.343013
990.000000	62.014992
980.000000	62.663032
970.000000	63.316913
960.000000	63.999306
950.000000	64.643152
940.000000	65.256293
930.000000	65.820927
920.000000	66.372578
910.000000	66.889975
900.000000	67.389858
890.000000	67.857016
880.000000	68.192870
870.000000	68.466889
860.000000	68.801126
850.000000	68.776271
840.000000	68.835809
830.000000	69.013680
820.000000	68.922267
810.000000	68.968231
800.000000	68.727104
790.000000	67.661708
780.000000	65.739810
770.000000	61.973036
760.000000	54.358635
750.000000	42.683060
740.000000	30.599629
730.000000	22.774707
720.000000	19.353006
710.000000	17.992558
700.000000	17.213812
690.000000	16.470595
680.000000	15.588036
670.000000	14.629022
660.000000	13.567085
650.000000	12.430668
640.000000	11.281104
630.000000	10.137002
620.000000	8.958902
610.000000	7.776942
600.000000	6.599843
590.000000	5.466426
580.000000	4.405439
570.000000	3.407952
560.000000	2.554170
550.000000	1.818433
540.000000	1.239766
530.000000	0.798088
520.000000	0.490450
510.000000	0.281338
500.000000	0.158082
490.000000	0.085198
480.000000	0.052115
470.000000	0.035217
460.000000	0.028169
450.000000	0.030249
440.000000	0.029670
430.000000	0.021354
420.000000	0.013224
410.000000	0.010639
400.000000	0.015817
390.000000	0.009162
380.000000	0.012890
370.000000	0.012482
360.000000	0.008067
350.000000	0.000274
340.000000	0.008855
330.000000	0.020612
320.000000	0.004698
310.000000	0.006990
300.000000	0.200143
