PE UV       SUBTECH     SPECTRUM    ASCII       PEDS        4.00        
   -1
3_TR.Sample.asc
23/03/22
10:19:53.00
23/03/22
10:19:53.00
Analyst

300.000000
1
Lambda 950
950L1311181
PerkinElmer UV WinLab 6.0.4.0738 / 1.61.00 Lambda 900

0
0
3350/servo 860.8/5
0
0
UV/VIS
1
1
1
RBeamAtt,SBeamAtt,150mm sphere / downward view, WB InGaAs Detector
0
0
0
0
Program
Program
3350/servo 860.8/5
3350/0.2 860.8/0.2
3350/0.2 860.8/0.2
0
9.50
 
 
 
0
 
860.8
319.2
860.8
Front
100
 
S:100 R:100
 
0
0
0
 
0
 
 
 
0
 
 
0
0
0
0
0
 
 
 
 
0
0


0
0
#HDR
-1
-1
#GR
nm
%R
1.0
0.0
1200.000000
-10.000000
91
8
34.084080
16.548619
#DATA
1200.000000	34.084080
1190.000000	33.932788
1180.000000	33.707507
1170.000000	33.448271
1160.000000	33.129118
1150.000000	32.757120
1140.000000	32.348610
1130.000000	31.890812
1120.000000	31.403502
1110.000000	30.877296
1100.000000	30.307984
1090.000000	29.692751
1080.000000	29.058153
1070.000000	28.402584
1060.000000	27.739875
1050.000000	27.064606
1040.000000	26.383559
1030.000000	25.688774
1020.000000	25.014509
1010.000000	24.356514
1000.000000	23.720661
990.000000	23.117861
980.000000	22.551417
970.000000	22.045374
960.000000	21.590243
950.000000	21.179181
940.000000	20.868426
930.000000	20.619760
920.000000	20.457769
910.000000	20.354369
900.000000	20.318380
890.000000	20.351031
880.000000	20.463784
870.000000	20.603123
860.000000	20.786542
850.000000	20.442264
840.000000	20.707549
830.000000	20.979124
820.000000	21.168112
810.000000	21.511822
800.000000	21.801165
790.000000	21.965264
780.000000	22.006286
770.000000	21.779033
760.000000	21.025849
750.000000	19.877960
740.000000	18.828269
730.000000	18.221968
720.000000	17.931856
710.000000	17.720626
700.000000	17.590195
690.000000	17.529711
680.000000	17.484979
670.000000	17.466739
660.000000	17.469523
650.000000	17.499587
640.000000	17.557249
630.000000	17.648496
620.000000	17.749278
610.000000	17.913864
600.000000	18.070849
590.000000	18.301796
580.000000	18.524936
570.000000	18.720619
560.000000	18.938405
550.000000	19.193595
540.000000	19.437607
530.000000	19.741962
520.000000	20.042453
510.000000	20.381978
500.000000	20.698035
490.000000	20.706227
480.000000	20.615112
470.000000	20.462380
460.000000	20.260115
450.000000	19.992976
440.000000	19.872172
430.000000	19.949926
420.000000	20.304422
410.000000	20.791572
400.000000	21.311806
390.000000	21.908953
380.000000	22.372117
370.000000	22.488084
360.000000	22.188760
350.000000	21.502077
340.000000	20.481501
330.000000	19.235852
320.000000	17.835898
310.000000	16.548619
300.000000	16.824076
