PE UV       SUBTECH     SPECTRUM    ASCII       PEDS        4.00        
   -1
3_TT.Sample.asc
23/03/22
09:44:51.00
23/03/22
09:44:51.00
Analyst

300.000000
1
Lambda 950
950L1311181
PerkinElmer UV WinLab 6.0.4.0738 / 1.61.00 Lambda 900

0
0
3350/servo 860.8/5
0
0
UV/VIS
1
1
1
RBeamAtt,SBeamAtt,150mm sphere / downward view, WB InGaAs Detector
0
0
0
0
Program
Program
3350/servo 860.8/5
3350/0.2 860.8/0.2
3350/0.2 860.8/0.2
0
9.50
 
 
 
0
 
860.8
319.2
860.8
Front
100
 
S:100 R:100
 
0
0
0
 
0
 
 
 
0
 
 
0
0
0
0
0
 
 
 
 
0
0


0
0
#HDR
-1
-1
#GR
nm
%R
1.0
0.0
1200.000000
-10.000000
91
8
69.001080
-0.005753
#DATA
1200.000000	51.104702
1190.000000	51.508021
1180.000000	51.964063
1170.000000	52.425044
1160.000000	52.929479
1150.000000	53.460066
1140.000000	54.012219
1130.000000	54.622996
1120.000000	55.256173
1110.000000	55.913876
1100.000000	56.594632
1090.000000	57.289924
1080.000000	58.032241
1070.000000	58.791849
1060.000000	59.547918
1050.000000	60.274431
1040.000000	61.060242
1030.000000	61.815157
1020.000000	62.569259
1010.000000	63.333285
1000.000000	64.051040
990.000000	64.709509
980.000000	65.355553
970.000000	65.939668
960.000000	66.510355
950.000000	66.989527
940.000000	67.405254
930.000000	67.757229
920.000000	68.114482
910.000000	68.370787
900.000000	68.536585
890.000000	68.728317
880.000000	68.780760
870.000000	68.832587
860.000000	69.001080
850.000000	68.749050
840.000000	68.711558
830.000000	68.736391
820.000000	68.658246
810.000000	68.689772
800.000000	68.568006
790.000000	67.879333
780.000000	66.483358
770.000000	63.153196
760.000000	55.772427
750.000000	43.333116
740.000000	30.315861
730.000000	22.192893
720.000000	18.735470
710.000000	17.342104
700.000000	16.518043
690.000000	15.763142
680.000000	14.883339
670.000000	13.922424
660.000000	12.870484
650.000000	11.752851
640.000000	10.623626
630.000000	9.477183
620.000000	8.325230
610.000000	7.170707
600.000000	6.030831
590.000000	4.952452
580.000000	3.943797
570.000000	3.026873
560.000000	2.224783
550.000000	1.552085
540.000000	1.031234
530.000000	0.642853
520.000000	0.375901
510.000000	0.209980
500.000000	0.111844
490.000000	0.049691
480.000000	0.026971
470.000000	0.007148
460.000000	0.007675
450.000000	0.007736
440.000000	0.008936
430.000000	0.006250
420.000000	0.002523
410.000000	-0.004360
400.000000	0.005068
390.000000	0.001145
380.000000	0.000800
370.000000	-0.001167
360.000000	0.000906
350.000000	-0.004658
340.000000	0.006273
330.000000	0.012929
320.000000	-0.005753
310.000000	0.089881
300.000000	2.164932
