PE UV       SUBTECH     SPECTRUM    ASCII       PEDS        4.00        
   -1
4_TR.Sample.asc
23/03/22
10:22:43.00
23/03/22
10:22:43.00
Analyst

300.000000
1
Lambda 950
950L1311181
PerkinElmer UV WinLab 6.0.4.0738 / 1.61.00 Lambda 900

0
0
3350/servo 860.8/5
0
0
UV/VIS
1
1
1
RBeamAtt,SBeamAtt,150mm sphere / downward view, WB InGaAs Detector
0
0
0
0
Program
Program
3350/servo 860.8/5
3350/0.2 860.8/0.2
3350/0.2 860.8/0.2
0
9.50
 
 
 
0
 
860.8
319.2
860.8
Front
100
 
S:100 R:100
 
0
0
0
 
0
 
 
 
0
 
 
0
0
0
0
0
 
 
 
 
0
0


0
0
#HDR
-1
-1
#GR
nm
%R
1.0
0.0
1200.000000
-10.000000
91
8
33.819799
13.345190
#DATA
1200.000000	33.819799
1190.000000	33.194446
1180.000000	32.442567
1170.000000	31.699799
1160.000000	30.890465
1150.000000	30.052827
1140.000000	29.192229
1130.000000	28.294168
1120.000000	27.414547
1110.000000	26.571923
1100.000000	25.683756
1090.000000	24.837054
1080.000000	24.033517
1070.000000	23.258608
1060.000000	22.553316
1050.000000	21.884189
1040.000000	21.316854
1030.000000	20.815355
1020.000000	20.398986
1010.000000	20.083565
1000.000000	19.838022
990.000000	19.712097
980.000000	19.616091
970.000000	19.646338
960.000000	19.729707
950.000000	19.867747
940.000000	20.063345
930.000000	20.286031
920.000000	20.540437
910.000000	20.781083
900.000000	21.019718
890.000000	21.253511
880.000000	21.422701
870.000000	21.623582
860.000000	21.762238
850.000000	21.619740
840.000000	21.568654
830.000000	21.586210
820.000000	21.478749
810.000000	21.338483
800.000000	21.196902
790.000000	20.815664
780.000000	20.249048
770.000000	19.593468
760.000000	18.649703
750.000000	17.520027
740.000000	16.545467
730.000000	16.015297
720.000000	15.780520
710.000000	15.650819
700.000000	15.629804
690.000000	15.642886
680.000000	15.686442
670.000000	15.734475
660.000000	15.831125
650.000000	15.919026
640.000000	16.073748
630.000000	16.165821
620.000000	16.291448
610.000000	16.439911
600.000000	16.603635
590.000000	16.800600
580.000000	16.991257
570.000000	17.161078
560.000000	17.405256
550.000000	17.631209
540.000000	17.874921
530.000000	18.165867
520.000000	18.467103
510.000000	18.762258
500.000000	19.054138
490.000000	18.992529
480.000000	18.762011
470.000000	18.508526
460.000000	18.275816
450.000000	18.059540
440.000000	17.987549
430.000000	18.145632
420.000000	18.484594
410.000000	18.971442
400.000000	19.496747
390.000000	20.068986
380.000000	20.473401
370.000000	20.504122
360.000000	20.193197
350.000000	19.557324
340.000000	18.639220
330.000000	17.491601
320.000000	16.325385
310.000000	15.140058
300.000000	13.345190
