PE UV       SUBTECH     SPECTRUM    ASCII       PEDS        4.00        
   -1
4_TT.Sample.asc
23/03/22
09:47:26.00
23/03/22
09:47:26.00
Analyst

300.000000
1
Lambda 950
950L1311181
PerkinElmer UV WinLab 6.0.4.0738 / 1.61.00 Lambda 900

0
0
3350/servo 860.8/5
0
0
UV/VIS
1
1
1
RBeamAtt,SBeamAtt,150mm sphere / downward view, WB InGaAs Detector
0
0
0
0
Program
Program
3350/servo 860.8/5
3350/0.2 860.8/0.2
3350/0.2 860.8/0.2
0
9.50
 
 
 
0
 
860.8
319.2
860.8
Front
100
 
S:100 R:100
 
0
0
0
 
0
 
 
 
0
 
 
0
0
0
0
0
 
 
 
 
0
0


0
0
#HDR
-1
-1
#GR
nm
%R
1.0
0.0
1200.000000
-10.000000
91
8
65.960306
-0.006394
#DATA
1200.000000	48.492743
1190.000000	49.230178
1180.000000	50.026637
1170.000000	50.829650
1160.000000	51.667313
1150.000000	52.539295
1140.000000	53.438536
1130.000000	54.375239
1120.000000	55.308057
1110.000000	56.255783
1100.000000	57.202674
1090.000000	58.158553
1080.000000	59.099301
1070.000000	60.029153
1060.000000	60.898107
1050.000000	61.686512
1040.000000	62.489496
1030.000000	63.187168
1020.000000	63.815339
1010.000000	64.383970
1000.000000	64.876753
990.000000	65.249727
980.000000	65.525672
970.000000	65.730351
960.000000	65.878673
950.000000	65.932015
940.000000	65.960306
930.000000	65.881790
920.000000	65.814240
910.000000	65.678314
900.000000	65.612951
890.000000	65.547300
880.000000	65.380678
870.000000	65.284592
860.000000	65.312962
850.000000	65.259501
840.000000	65.039222
830.000000	65.114240
820.000000	65.164814
810.000000	65.205515
800.000000	65.019410
790.000000	64.046433
780.000000	62.074927
770.000000	58.575068
760.000000	52.210213
750.000000	42.007063
740.000000	30.516178
730.000000	22.289156
720.000000	18.251940
710.000000	16.460562
700.000000	15.458130
690.000000	14.627577
680.000000	13.743571
670.000000	12.814895
660.000000	11.793438
650.000000	10.741982
640.000000	9.687877
630.000000	8.617989
620.000000	7.526081
610.000000	6.482601
600.000000	5.423594
590.000000	4.448004
580.000000	3.533982
570.000000	2.703829
560.000000	1.995462
550.000000	1.388400
540.000000	0.928451
530.000000	0.584182
520.000000	0.348528
510.000000	0.196998
500.000000	0.105126
490.000000	0.047516
480.000000	0.033584
470.000000	0.011158
460.000000	0.005843
450.000000	0.016342
440.000000	0.017004
430.000000	0.005816
420.000000	0.001827
410.000000	-0.001744
400.000000	0.001573
390.000000	0.001410
380.000000	0.003022
370.000000	0.002963
360.000000	0.005348
350.000000	-0.006394
340.000000	0.003782
330.000000	0.016302
320.000000	0.001055
310.000000	0.120498
300.000000	2.483784
