PE UV       SUBTECH     SPECTRUM    ASCII       PEDS        4.00        
   -1
5_TR.Sample.asc
23/03/22
10:25:32.00
23/03/22
10:25:32.00
Analyst

300.000000
1
Lambda 950
950L1311181
PerkinElmer UV WinLab 6.0.4.0738 / 1.61.00 Lambda 900

0
0
3350/servo 860.8/5
0
0
UV/VIS
1
1
1
RBeamAtt,SBeamAtt,150mm sphere / downward view, WB InGaAs Detector
0
0
0
0
Program
Program
3350/servo 860.8/5
3350/0.2 860.8/0.2
3350/0.2 860.8/0.2
0
9.50
 
 
 
0
 
860.8
319.2
860.8
Front
100
 
S:100 R:100
 
0
0
0
 
0
 
 
 
0
 
 
0
0
0
0
0
 
 
 
 
0
0


0
0
#HDR
-1
-1
#GR
nm
%R
1.0
0.0
1200.000000
-10.000000
91
8
26.087619
13.127533
#DATA
1200.000000	20.542423
1190.000000	19.321674
1180.000000	18.214985
1170.000000	17.320430
1160.000000	16.606023
1150.000000	16.110190
1140.000000	15.851245
1130.000000	15.823640
1120.000000	16.009301
1110.000000	16.410835
1100.000000	16.986312
1090.000000	17.733604
1080.000000	18.616392
1070.000000	19.592775
1060.000000	20.606261
1050.000000	21.630631
1040.000000	22.638434
1030.000000	23.563633
1020.000000	24.387548
1010.000000	25.087458
1000.000000	25.609211
990.000000	25.955175
980.000000	26.087619
970.000000	26.057988
960.000000	25.805147
950.000000	25.325755
940.000000	24.673459
930.000000	23.835152
920.000000	22.921155
910.000000	21.863252
900.000000	20.761358
890.000000	19.664241
880.000000	18.591387
870.000000	17.661488
860.000000	16.908250
850.000000	16.413601
840.000000	15.968785
830.000000	15.773484
820.000000	15.834813
810.000000	16.219646
800.000000	16.882906
790.000000	17.452932
780.000000	17.804336
770.000000	17.748356
760.000000	16.955058
750.000000	15.639122
740.000000	14.589044
730.000000	14.035978
720.000000	13.801308
710.000000	13.656137
700.000000	13.576987
690.000000	13.525426
680.000000	13.470154
670.000000	13.434962
660.000000	13.381758
650.000000	13.408300
640.000000	13.486821
630.000000	13.588676
620.000000	13.720596
610.000000	13.900144
600.000000	14.066557
590.000000	14.259657
580.000000	14.415956
570.000000	14.549459
560.000000	14.730395
550.000000	14.928177
540.000000	15.114697
530.000000	15.353482
520.000000	15.547244
510.000000	15.759199
500.000000	15.947195
490.000000	15.898613
480.000000	15.628208
470.000000	15.305074
460.000000	15.076153
450.000000	14.976891
440.000000	15.012787
430.000000	15.245445
420.000000	15.629835
410.000000	16.135332
400.000000	16.603977
390.000000	17.067333
380.000000	17.368109
370.000000	17.347058
360.000000	17.076309
350.000000	16.479387
340.000000	15.647218
330.000000	14.715997
320.000000	13.740935
310.000000	13.127533
300.000000	15.631902
