PE UV       SUBTECH     SPECTRUM    ASCII       PEDS        4.00        
   -1
5_TT.Sample.asc
23/03/22
09:50:07.00
23/03/22
09:50:07.00
Analyst

300.000000
1
Lambda 950
950L1311181
PerkinElmer UV WinLab 6.0.4.0738 / 1.61.00 Lambda 900

0
0
3350/servo 860.8/5
0
0
UV/VIS
1
1
1
RBeamAtt,SBeamAtt,150mm sphere / downward view, WB InGaAs Detector
0
0
0
0
Program
Program
3350/servo 860.8/5
3350/0.2 860.8/0.2
3350/0.2 860.8/0.2
0
9.50
 
 
 
0
 
860.8
319.2
860.8
Front
100
 
S:100 R:100
 
0
0
0
 
0
 
 
 
0
 
 
0
0
0
0
0
 
 
 
 
0
0


0
0
#HDR
-1
-1
#GR
nm
%R
1.0
0.0
1200.000000
-10.000000
91
8
68.314406
0.000436
#DATA
1200.000000	60.457298
1190.000000	61.554017
1180.000000	62.548591
1170.000000	63.389048
1160.000000	64.084343
1150.000000	64.603343
1140.000000	64.940561
1130.000000	65.109313
1120.000000	65.117101
1110.000000	64.948934
1100.000000	64.633560
1090.000000	64.190036
1080.000000	63.678208
1070.000000	63.071811
1060.000000	62.419933
1050.000000	61.739936
1040.000000	61.132674
1030.000000	60.556670
1020.000000	60.069349
1010.000000	59.720615
1000.000000	59.464000
990.000000	59.347153
980.000000	59.383737
970.000000	59.558179
960.000000	59.920361
950.000000	60.397607
940.000000	61.077412
930.000000	61.802217
920.000000	62.657072
910.000000	63.544046
900.000000	64.490345
890.000000	65.458034
880.000000	66.298558
870.000000	67.084849
860.000000	67.745014
850.000000	67.795443
840.000000	68.181628
830.000000	68.314406
820.000000	68.175293
810.000000	67.901412
800.000000	67.008095
790.000000	64.965129
780.000000	61.418457
770.000000	55.661231
760.000000	47.356841
750.000000	37.083328
740.000000	27.376417
730.000000	20.731665
720.000000	17.212050
710.000000	15.381019
700.000000	14.255383
690.000000	13.305958
680.000000	12.333402
670.000000	11.348535
660.000000	10.302764
650.000000	9.270240
640.000000	8.270680
630.000000	7.277438
620.000000	6.288102
610.000000	5.326283
600.000000	4.388288
590.000000	3.529563
580.000000	2.748352
570.000000	2.051536
560.000000	1.471274
550.000000	0.997825
540.000000	0.635632
530.000000	0.391405
520.000000	0.221339
510.000000	0.112047
500.000000	0.060022
490.000000	0.030372
480.000000	0.016270
470.000000	0.006887
460.000000	0.005407
450.000000	0.002521
440.000000	0.008589
430.000000	0.007812
420.000000	0.003654
410.000000	0.000436
400.000000	0.008564
390.000000	0.007048
380.000000	0.009690
370.000000	0.001527
360.000000	0.006798
350.000000	0.002923
340.000000	0.010331
330.000000	0.022580
320.000000	0.002397
310.000000	0.080725
300.000000	1.749080
