PE UV       SUBTECH     SPECTRUM    ASCII       PEDS        4.00        
   -1
6_TR.Sample.asc
23/03/22
10:28:37.00
23/03/22
10:28:37.00
Analyst

300.000000
1
Lambda 950
950L1311181
PerkinElmer UV WinLab 6.0.4.0738 / 1.61.00 Lambda 900

0
0
3350/servo 860.8/5
0
0
UV/VIS
1
1
1
RBeamAtt,SBeamAtt,150mm sphere / downward view, WB InGaAs Detector
0
0
0
0
Program
Program
3350/servo 860.8/5
3350/0.2 860.8/0.2
3350/0.2 860.8/0.2
0
9.50
 
 
 
0
 
860.8
319.2
860.8
Front
100
 
S:100 R:100
 
0
0
0
 
0
 
 
 
0
 
 
0
0
0
0
0
 
 
 
 
0
0


0
0
#HDR
-1
-1
#GR
nm
%R
1.0
0.0
1200.000000
-10.000000
91
8
33.011104
12.957188
#DATA
1200.000000	33.011104
1190.000000	31.963184
1180.000000	30.820457
1170.000000	29.682100
1160.000000	28.495370
1150.000000	27.292867
1140.000000	26.092408
1130.000000	24.902281
1120.000000	23.739896
1110.000000	22.653269
1100.000000	21.596774
1090.000000	20.633460
1080.000000	19.768638
1070.000000	19.032187
1060.000000	18.451900
1050.000000	18.015971
1040.000000	17.756471
1030.000000	17.672748
1020.000000	17.742404
1010.000000	18.007957
1000.000000	18.397035
990.000000	18.899439
980.000000	19.477721
970.000000	20.158082
960.000000	20.855850
950.000000	21.537537
940.000000	22.192910
930.000000	22.755169
920.000000	23.267607
910.000000	23.655714
900.000000	23.900191
890.000000	24.025616
880.000000	24.009739
870.000000	23.816090
860.000000	23.527218
850.000000	23.067175
840.000000	22.639729
830.000000	22.103351
820.000000	21.513549
810.000000	20.890650
800.000000	20.240928
790.000000	19.530572
780.000000	18.739358
770.000000	17.994410
760.000000	17.193892
750.000000	16.325949
740.000000	15.655938
730.000000	15.314595
720.000000	15.198209
710.000000	15.162808
700.000000	15.254962
690.000000	15.376689
680.000000	15.557101
670.000000	15.699811
660.000000	15.844727
650.000000	15.959812
640.000000	16.091150
630.000000	16.128264
620.000000	16.152549
610.000000	16.193250
600.000000	16.278461
590.000000	16.401289
580.000000	16.595776
570.000000	16.801761
560.000000	17.078054
550.000000	17.334481
540.000000	17.601734
530.000000	17.889710
520.000000	18.210894
510.000000	18.534591
500.000000	18.757603
490.000000	18.683503
480.000000	18.442445
470.000000	18.223477
460.000000	17.994824
450.000000	17.789991
440.000000	17.744814
430.000000	17.936436
420.000000	18.278147
410.000000	18.735891
400.000000	19.237652
390.000000	19.748214
380.000000	20.107864
370.000000	20.128862
360.000000	19.846403
350.000000	19.193511
340.000000	18.328268
330.000000	17.272364
320.000000	16.181267
310.000000	15.061892
300.000000	12.957188
