PE UV       SUBTECH     SPECTRUM    ASCII       PEDS        4.00        
   -1
6_TT.Sample.asc
23/03/22
09:52:50.00
23/03/22
09:52:50.00
Analyst

300.000000
1
Lambda 950
950L1311181
PerkinElmer UV WinLab 6.0.4.0738 / 1.61.00 Lambda 900

0
0
3350/servo 860.8/5
0
0
UV/VIS
1
1
1
RBeamAtt,SBeamAtt,150mm sphere / downward view, WB InGaAs Detector
0
0
0
0
Program
Program
3350/servo 860.8/5
3350/0.2 860.8/0.2
3350/0.2 860.8/0.2
0
9.50
 
 
 
0
 
860.8
319.2
860.8
Front
100
 
S:100 R:100
 
0
0
0
 
0
 
 
 
0
 
 
0
0
0
0
0
 
 
 
 
0
0


0
0
#HDR
-1
-1
#GR
nm
%R
1.0
0.0
1200.000000
-10.000000
91
8
67.281358
-0.019697
#DATA
1200.000000	50.808907
1190.000000	51.898037
1180.000000	53.045186
1170.000000	54.178697
1160.000000	55.341329
1150.000000	56.507203
1140.000000	57.660919
1130.000000	58.813166
1120.000000	59.936412
1110.000000	61.022780
1100.000000	62.045565
1090.000000	63.000594
1080.000000	63.881925
1070.000000	64.661417
1060.000000	65.318118
1050.000000	65.781992
1040.000000	66.173134
1030.000000	66.404255
1020.000000	66.497478
1010.000000	66.473288
1000.000000	66.336904
990.000000	66.091347
980.000000	65.768296
970.000000	65.360174
960.000000	64.998410
950.000000	64.610908
940.000000	64.274252
930.000000	63.935859
920.000000	63.716854
910.000000	63.568554
900.000000	63.537798
890.000000	63.655893
880.000000	63.784118
870.000000	64.077419
860.000000	64.507210
850.000000	64.530966
840.000000	65.057727
830.000000	65.577590
820.000000	66.163271
810.000000	66.807888
800.000000	67.281358
790.000000	67.044408
780.000000	66.034689
770.000000	63.015419
760.000000	56.384842
750.000000	45.083474
740.000000	32.094496
730.000000	22.710983
720.000000	18.017025
710.000000	15.964449
700.000000	14.885426
690.000000	14.005507
680.000000	13.098934
670.000000	12.140108
660.000000	11.117544
650.000000	10.065380
640.000000	9.025353
630.000000	7.982308
620.000000	6.933799
610.000000	5.919003
600.000000	4.916806
590.000000	3.973533
580.000000	3.112544
570.000000	2.331490
560.000000	1.684777
550.000000	1.137852
540.000000	0.732046
530.000000	0.436019
520.000000	0.254814
510.000000	0.136705
500.000000	0.061069
490.000000	0.019233
480.000000	0.005394
470.000000	0.002092
460.000000	0.003576
450.000000	-0.003042
440.000000	-0.001388
430.000000	-0.007205
420.000000	-0.006786
410.000000	-0.005058
400.000000	-0.002534
390.000000	-0.000969
380.000000	0.009156
370.000000	-0.003233
360.000000	0.001450
350.000000	-0.003106
340.000000	-0.000184
330.000000	0.004966
320.000000	0.001055
310.000000	-0.011617
300.000000	-0.019697
