PE UV       SUBTECH     SPECTRUM    ASCII       PEDS        4.00        
   -1
7_TR.Sample.asc
23/03/22
10:31:28.00
23/03/22
10:31:28.00
Analyst

300.000000
1
Lambda 950
950L1311181
PerkinElmer UV WinLab 6.0.4.0738 / 1.61.00 Lambda 900

0
0
3350/servo 860.8/5
0
0
UV/VIS
1
1
1
RBeamAtt,SBeamAtt,150mm sphere / downward view, WB InGaAs Detector
0
0
0
0
Program
Program
3350/servo 860.8/5
3350/0.2 860.8/0.2
3350/0.2 860.8/0.2
0
9.50
 
 
 
0
 
860.8
319.2
860.8
Front
100
 
S:100 R:100
 
0
0
0
 
0
 
 
 
0
 
 
0
0
0
0
0
 
 
 
 
0
0


0
0
#HDR
-1
-1
#GR
nm
%R
1.0
0.0
1200.000000
-10.000000
91
8
47.206058
8.164802
#DATA
1200.000000	47.206058
1190.000000	46.798593
1180.000000	46.184590
1170.000000	45.425882
1160.000000	44.494171
1150.000000	43.340243
1140.000000	42.090784
1130.000000	40.564631
1120.000000	38.846062
1110.000000	36.959043
1100.000000	34.858607
1090.000000	32.551827
1080.000000	30.072159
1070.000000	27.461057
1060.000000	24.785812
1050.000000	22.024951
1040.000000	19.312040
1030.000000	16.704504
1020.000000	14.323505
1010.000000	12.216810
1000.000000	10.476058
990.000000	9.199253
980.000000	8.394784
970.000000	8.164802
960.000000	8.434763
950.000000	9.196517
940.000000	10.404498
930.000000	11.946329
920.000000	13.777608
910.000000	15.771750
900.000000	17.851594
890.000000	19.933747
880.000000	21.936978
870.000000	23.838526
860.000000	25.497670
850.000000	25.770696
840.000000	26.913292
830.000000	27.833348
820.000000	28.343609
810.000000	28.541190
800.000000	28.154650
790.000000	27.092274
780.000000	24.986333
770.000000	21.746458
760.000000	18.050654
750.000000	15.434442
740.000000	14.312110
730.000000	13.921751
720.000000	13.762680
710.000000	13.644114
700.000000	13.627052
690.000000	13.753827
680.000000	14.015264
670.000000	14.407551
660.000000	14.909341
650.000000	15.487657
640.000000	16.097850
630.000000	16.589492
620.000000	16.912486
610.000000	17.029667
600.000000	16.983268
590.000000	16.836082
580.000000	16.676621
570.000000	16.573201
560.000000	16.679276
550.000000	16.850583
540.000000	17.046984
530.000000	17.295575
520.000000	17.436078
510.000000	17.523116
500.000000	17.619097
490.000000	17.561141
480.000000	17.312348
470.000000	17.080663
460.000000	16.891612
450.000000	16.818275
440.000000	16.910163
430.000000	17.198173
420.000000	17.580857
410.000000	18.066653
400.000000	18.468408
390.000000	18.777529
380.000000	18.908843
370.000000	18.808136
360.000000	18.415083
350.000000	17.765659
340.000000	16.801827
330.000000	15.761873
320.000000	14.696164
310.000000	13.819902
300.000000	12.520792
