PE UV       SUBTECH     SPECTRUM    ASCII       PEDS        4.00        
   -1
7_TT.Sample.asc
23/03/22
09:55:21.00
23/03/22
09:55:21.00
Analyst

300.000000
1
Lambda 950
950L1311181
PerkinElmer UV WinLab 6.0.4.0738 / 1.61.00 Lambda 900

0
0
3350/servo 860.8/5
0
0
UV/VIS
1
1
1
RBeamAtt,SBeamAtt,150mm sphere / downward view, WB InGaAs Detector
0
0
0
0
Program
Program
3350/servo 860.8/5
3350/0.2 860.8/0.2
3350/0.2 860.8/0.2
0
9.50
 
 
 
0
 
860.8
319.2
860.8
Front
100
 
S:100 R:100
 
0
0
0
 
0
 
 
 
0
 
 
0
0
0
0
0
 
 
 
 
0
0


0
0
#HDR
-1
-1
#GR
nm
%R
1.0
0.0
1200.000000
-10.000000
91
8
77.153013
0.003045
#DATA
1200.000000	42.232833
1190.000000	42.786759
1180.000000	43.463447
1170.000000	44.266734
1160.000000	45.212652
1150.000000	46.298801
1140.000000	47.536446
1130.000000	48.937180
1120.000000	50.491587
1110.000000	52.188066
1100.000000	54.041193
1090.000000	56.050536
1080.000000	58.209057
1070.000000	60.506352
1060.000000	62.798783
1050.000000	65.119807
1040.000000	67.483863
1030.000000	69.689809
1020.000000	71.714867
1010.000000	73.530338
1000.000000	75.036647
990.000000	76.157709
980.000000	76.909092
970.000000	77.153013
960.000000	77.055047
950.000000	76.520486
940.000000	75.660524
930.000000	74.518474
920.000000	73.189146
910.000000	71.690296
900.000000	70.185991
890.000000	68.692867
880.000000	67.214154
870.000000	65.886499
860.000000	64.804299
850.000000	64.229370
840.000000	63.667093
830.000000	63.054493
820.000000	62.783725
810.000000	62.870781
800.000000	63.112924
790.000000	63.056588
780.000000	62.248094
770.000000	59.662907
760.000000	53.442645
750.000000	43.648364
740.000000	34.106693
730.000000	27.939001
720.000000	24.627246
710.000000	22.630928
700.000000	21.085811
690.000000	19.644766
680.000000	18.170201
670.000000	16.756424
660.000000	15.260761
650.000000	13.764261
640.000000	12.300995
630.000000	10.864092
620.000000	9.460647
610.000000	8.102336
600.000000	6.796205
590.000000	5.564309
580.000000	4.416014
570.000000	3.360842
560.000000	2.453668
550.000000	1.688795
540.000000	1.114909
530.000000	0.687468
520.000000	0.411207
510.000000	0.226011
500.000000	0.123796
490.000000	0.071187
480.000000	0.045851
470.000000	0.016737
460.000000	0.014128
450.000000	0.026077
440.000000	0.021688
430.000000	0.014930
420.000000	0.003045
410.000000	0.012820
400.000000	0.016690
390.000000	0.012246
380.000000	0.017335
370.000000	0.014367
360.000000	0.011058
350.000000	0.004750
340.000000	0.009870
330.000000	0.025390
320.000000	0.004507
310.000000	0.030321
300.000000	0.727821
