PE UV       SUBTECH     SPECTRUM    ASCII       PEDS        4.00        
   -1
8_TR.Sample.asc
23/03/22
10:34:20.00
23/03/22
10:34:20.00
Analyst

300.000000
1
Lambda 950
950L1311181
PerkinElmer UV WinLab 6.0.4.0738 / 1.61.00 Lambda 900

0
0
3350/servo 860.8/5
0
0
UV/VIS
1
1
1
RBeamAtt,SBeamAtt,150mm sphere / downward view, WB InGaAs Detector
0
0
0
0
Program
Program
3350/servo 860.8/5
3350/0.2 860.8/0.2
3350/0.2 860.8/0.2
0
9.50
 
 
 
0
 
860.8
319.2
860.8
Front
100
 
S:100 R:100
 
0
0
0
 
0
 
 
 
0
 
 
0
0
0
0
0
 
 
 
 
0
0


0
0
#HDR
-1
-1
#GR
nm
%R
1.0
0.0
1200.000000
-10.000000
91
8
46.961590
8.756127
#DATA
1200.000000	46.961590
1190.000000	46.385657
1180.000000	45.656047
1170.000000	44.756864
1160.000000	43.649745
1150.000000	42.348948
1140.000000	40.900294
1130.000000	39.215819
1120.000000	37.341713
1110.000000	35.263294
1100.000000	33.004608
1090.000000	30.548659
1080.000000	27.959148
1070.000000	25.286705
1060.000000	22.571756
1050.000000	19.865019
1040.000000	17.275230
1030.000000	14.899489
1020.000000	12.801267
1010.000000	11.087086
1000.000000	9.809802
990.000000	9.026763
980.000000	8.756127
970.000000	9.005330
960.000000	9.753897
950.000000	10.909119
940.000000	12.405414
930.000000	14.145693
920.000000	16.073729
910.000000	18.079919
900.000000	20.040981
890.000000	21.977289
880.000000	23.727386
870.000000	25.304175
860.000000	26.573761
850.000000	26.642401
840.000000	27.386344
830.000000	27.940848
820.000000	27.918523
810.000000	27.699744
800.000000	26.879174
790.000000	25.376194
780.000000	22.991279
770.000000	19.759747
760.000000	16.496269
750.000000	14.492394
740.000000	13.818575
730.000000	13.721429
720.000000	13.743962
710.000000	13.777138
700.000000	13.918539
690.000000	14.152134
680.000000	14.487561
670.000000	14.931578
660.000000	15.403287
650.000000	15.897766
640.000000	16.353585
630.000000	16.656677
620.000000	16.792060
610.000000	16.811691
600.000000	16.677991
590.000000	16.527838
580.000000	16.454714
570.000000	16.450487
560.000000	16.609798
550.000000	16.848576
540.000000	17.045065
530.000000	17.294178
520.000000	17.407745
510.000000	17.439821
500.000000	17.511092
490.000000	17.496133
480.000000	17.277894
470.000000	16.995497
460.000000	16.776407
450.000000	16.712489
440.000000	16.795215
430.000000	17.082985
420.000000	17.447314
410.000000	17.905317
400.000000	18.298009
390.000000	18.604148
380.000000	18.742431
370.000000	18.654494
360.000000	18.298247
350.000000	17.612023
340.000000	16.654791
330.000000	15.545071
320.000000	14.541690
310.000000	13.866270
300.000000	15.948107
