PE UV       SUBTECH     SPECTRUM    ASCII       PEDS        4.00        
   -1
8_TT.Sample.asc
23/03/22
09:57:51.00
23/03/22
09:57:51.00
Analyst

300.000000
1
Lambda 950
950L1311181
PerkinElmer UV WinLab 6.0.4.0738 / 1.61.00 Lambda 900

0
0
3350/servo 860.8/5
0
0
UV/VIS
1
1
1
RBeamAtt,SBeamAtt,150mm sphere / downward view, WB InGaAs Detector
0
0
0
0
Program
Program
3350/servo 860.8/5
3350/0.2 860.8/0.2
3350/0.2 860.8/0.2
0
9.50
 
 
 
0
 
860.8
319.2
860.8
Front
100
 
S:100 R:100
 
0
0
0
 
0
 
 
 
0
 
 
0
0
0
0
0
 
 
 
 
0
0


0
0
#HDR
-1
-1
#GR
nm
%R
1.0
0.0
1200.000000
-10.000000
91
8
75.188979
-0.007482
#DATA
1200.000000	41.543399
1190.000000	42.188483
1180.000000	42.967143
1170.000000	43.856016
1160.000000	44.907394
1150.000000	46.094749
1140.000000	47.433191
1130.000000	48.939809
1120.000000	50.580625
1110.000000	52.385691
1100.000000	54.325783
1090.000000	56.392675
1080.000000	58.594166
1070.000000	60.879362
1060.000000	63.145783
1050.000000	65.390553
1040.000000	67.597472
1030.000000	69.597102
1020.000000	71.390268
1010.000000	72.905852
1000.000000	74.034696
990.000000	74.844848
980.000000	75.188979
970.000000	75.110114
960.000000	74.695545
950.000000	73.938371
940.000000	72.900879
930.000000	71.688487
920.000000	70.343101
910.000000	68.919085
900.000000	67.523991
890.000000	66.179847
880.000000	64.912600
870.000000	63.868353
860.000000	63.025443
850.000000	62.795827
840.000000	62.125610
830.000000	61.993917
820.000000	61.985715
810.000000	62.346071
800.000000	62.667351
790.000000	62.461173
780.000000	61.284623
770.000000	58.137307
760.000000	51.414768
750.000000	41.796926
740.000000	32.768182
730.000000	26.967052
720.000000	23.794619
710.000000	21.750068
700.000000	20.196717
690.000000	18.741038
680.000000	17.293596
670.000000	15.894657
660.000000	14.457157
650.000000	13.033249
640.000000	11.648303
630.000000	10.239129
620.000000	8.894158
610.000000	7.584425
600.000000	6.329213
590.000000	5.133798
580.000000	4.055318
570.000000	3.052482
560.000000	2.221550
550.000000	1.510181
540.000000	0.987695
530.000000	0.599810
520.000000	0.342774
510.000000	0.197346
500.000000	0.101288
490.000000	0.044905
480.000000	0.026971
470.000000	0.010896
460.000000	-0.000698
450.000000	0.007475
440.000000	0.005986
430.000000	0.001128
420.000000	-0.007482
410.000000	-0.002093
400.000000	0.000699
390.000000	-0.000264
380.000000	0.001867
370.000000	-0.002784
360.000000	-0.001088
350.000000	-0.003836
340.000000	-0.000277
330.000000	0.013866
320.000000	-0.002205
310.000000	0.007974
300.000000	0.345326
