PE UV       SUBTECH     SPECTRUM    ASCII       PEDS        4.00        
   -1
9_TT.Sample.asc
23/03/22
10:00:23.00
23/03/22
10:00:23.00
Analyst

300.000000
1
Lambda 950
950L1311181
PerkinElmer UV WinLab 6.0.4.0738 / 1.61.00 Lambda 900

0
0
3350/servo 860.8/5
0
0
UV/VIS
1
1
1
RBeamAtt,SBeamAtt,150mm sphere / downward view, WB InGaAs Detector
0
0
0
0
Program
Program
3350/servo 860.8/5
3350/0.2 860.8/0.2
3350/0.2 860.8/0.2
0
9.50
 
 
 
0
 
860.8
319.2
860.8
Front
100
 
S:100 R:100
 
0
0
0
 
0
 
 
 
0
 
 
0
0
0
0
0
 
 
 
 
0
0


0
0
#HDR
-1
-1
#GR
nm
%R
1.0
0.0
1200.000000
-10.000000
91
8
75.235416
0.175332
#DATA
1200.000000	44.317739
1190.000000	44.719766
1180.000000	45.238266
1170.000000	45.850259
1160.000000	46.578171
1150.000000	47.405192
1140.000000	48.378179
1130.000000	49.476536
1120.000000	50.713102
1110.000000	52.079691
1100.000000	53.565285
1090.000000	55.199585
1080.000000	56.979098
1070.000000	58.861060
1060.000000	60.801625
1050.000000	62.799973
1040.000000	64.861848
1030.000000	66.855763
1020.000000	68.743375
1010.000000	70.496608
1000.000000	72.040147
990.000000	73.362147
980.000000	74.328468
970.000000	74.914837
960.000000	75.235416
950.000000	75.154147
940.000000	74.774747
930.000000	74.192783
920.000000	73.284262
910.000000	72.258148
900.000000	71.101926
890.000000	69.975474
880.000000	68.681002
870.000000	67.662050
860.000000	66.724177
850.000000	66.487083
840.000000	65.707982
830.000000	65.154562
820.000000	64.717466
810.000000	64.640019
800.000000	64.555000
790.000000	63.942825
780.000000	62.549076
770.000000	59.276251
760.000000	52.891463
750.000000	43.583719
740.000000	34.406156
730.000000	28.303122
720.000000	25.000337
710.000000	22.746045
700.000000	20.713366
690.000000	18.543302
680.000000	16.434224
670.000000	14.842194
660.000000	13.473685
650.000000	12.203138
640.000000	11.002398
630.000000	9.801254
620.000000	8.605381
610.000000	7.486249
600.000000	6.386638
590.000000	5.372738
580.000000	4.461636
570.000000	3.624101
560.000000	2.883994
550.000000	2.261475
540.000000	1.764065
530.000000	1.374674
520.000000	1.082459
510.000000	0.851507
500.000000	0.702820
490.000000	0.650164
480.000000	0.659665
470.000000	0.620746
460.000000	0.599397
450.000000	0.593513
440.000000	0.579163
430.000000	0.563354
420.000000	0.547132
410.000000	0.529967
400.000000	0.525267
390.000000	0.504813
380.000000	0.492214
370.000000	0.493611
360.000000	0.482122
350.000000	0.457347
340.000000	0.443321
330.000000	0.390131
320.000000	0.274046
310.000000	0.175332
300.000000	1.289492
