PE UV       SUBTECH     SPECTRUM    ASCII       PEDS        4.00        
   -1
Void_TR.Sample.asc
23/03/22
10:10:36.00
23/03/22
10:10:36.00
Analyst

300.000000
1
Lambda 950
950L1311181
PerkinElmer UV WinLab 6.0.4.0738 / 1.61.00 Lambda 900

0
0
3350/servo 860.8/5
0
0
UV/VIS
1
1
1
RBeamAtt,SBeamAtt,150mm sphere / downward view, WB InGaAs Detector
0
0
0
0
Program
Program
3350/servo 860.8/5
3350/0.2 860.8/0.2
3350/0.2 860.8/0.2
0
9.50
 
 
 
0
 
860.8
319.2
860.8
Front
100
 
S:100 R:100
 
0
0
0
 
0
 
 
 
0
 
 
0
0
0
0
0
 
 
 
 
0
0


0
0
#HDR
-1
-1
#GR
nm
%R
1.0
0.0
1200.000000
-10.000000
91
8
1.204126
-0.375294
#DATA
1200.000000	1.204126
1190.000000	1.197683
1180.000000	1.198106
1170.000000	1.195510
1160.000000	1.190347
1150.000000	1.189328
1140.000000	1.186638
1130.000000	1.182546
1120.000000	1.178129
1110.000000	1.174687
1100.000000	1.170853
1090.000000	1.172700
1080.000000	1.161867
1070.000000	1.162590
1060.000000	1.161882
1050.000000	1.155829
1040.000000	1.149172
1030.000000	1.137745
1020.000000	1.133328
1010.000000	1.136257
1000.000000	1.129682
990.000000	1.125296
980.000000	1.110868
970.000000	1.111888
960.000000	1.099834
950.000000	1.088323
940.000000	1.093164
930.000000	1.071945
920.000000	1.054259
910.000000	1.062789
900.000000	1.048776
890.000000	1.021045
880.000000	1.023731
870.000000	0.963487
860.000000	0.950786
850.000000	1.111070
840.000000	1.062503
830.000000	1.049353
820.000000	1.047805
810.000000	1.040033
800.000000	1.041354
790.000000	1.031320
780.000000	1.013607
770.000000	1.017122
760.000000	1.027848
750.000000	1.007028
740.000000	0.991037
730.000000	0.978135
720.000000	0.993350
710.000000	0.986426
700.000000	0.973819
690.000000	0.966863
680.000000	0.963551
670.000000	0.964635
660.000000	0.960859
650.000000	0.958455
640.000000	0.968553
630.000000	0.961408
620.000000	0.955127
610.000000	0.958745
600.000000	0.956499
590.000000	0.955148
580.000000	0.956233
570.000000	0.952786
560.000000	0.944639
550.000000	0.961509
540.000000	0.963090
530.000000	0.961530
520.000000	0.961024
510.000000	0.939768
500.000000	0.925287
490.000000	0.944744
480.000000	0.963136
470.000000	0.953304
460.000000	0.942309
450.000000	0.946943
440.000000	0.952548
430.000000	0.955271
420.000000	0.958981
410.000000	0.968800
400.000000	0.981675
390.000000	0.976059
380.000000	0.992783
370.000000	1.009222
360.000000	1.015910
350.000000	1.013161
340.000000	1.031371
330.000000	1.048406
320.000000	1.050541
310.000000	1.019602
300.000000	-0.375294
