PE UV       SUBTECH     SPECTRUM    ASCII       PEDS        4.00        
   -1
Void_TT.Sample.asc
23/03/22
09:35:47.00
23/03/22
09:35:47.00
Analyst

300.000000
1
Lambda 950
950L1311181
PerkinElmer UV WinLab 6.0.4.0738 / 1.61.00 Lambda 900

0
0
3350/servo 860.8/5
0
0
UV/VIS
1
1
1
RBeamAtt,SBeamAtt,150mm sphere / downward view, WB InGaAs Detector
0
0
0
0
Program
Program
3350/servo 860.8/5
3350/0.2 860.8/0.2
3350/0.2 860.8/0.2
0
9.50
 
 
 
0
 
860.8
319.2
860.8
Front
100
 
S:100 R:100
 
0
0
0
 
0
 
 
 
0
 
 
0
0
0
0
0
 
 
 
 
0
0


0
0
#HDR
-1
-1
#GR
nm
%R
1.0
0.0
1200.000000
-10.000000
91
8
98.694705
97.165782
#DATA
1200.000000	97.796445
1190.000000	97.798226
1180.000000	97.832489
1170.000000	97.852810
1160.000000	97.871512
1150.000000	97.867676
1140.000000	97.904193
1130.000000	97.916701
1120.000000	97.965656
1110.000000	97.955573
1100.000000	97.978289
1090.000000	97.979380
1080.000000	98.026081
1070.000000	98.031405
1060.000000	98.066022
1050.000000	98.003138
1040.000000	98.042409
1030.000000	98.041741
1020.000000	98.059789
1010.000000	98.085966
1000.000000	98.096463
990.000000	98.093538
980.000000	98.119389
970.000000	98.102803
960.000000	98.209394
950.000000	98.222825
940.000000	98.244009
930.000000	98.191708
920.000000	98.285182
910.000000	98.318758
900.000000	98.402843
890.000000	98.494953
880.000000	98.438491
870.000000	98.398591
860.000000	98.487552
850.000000	98.500714
840.000000	98.573710
830.000000	98.609204
820.000000	98.561787
810.000000	98.680227
800.000000	98.694705
790.000000	98.518849
780.000000	98.433908
770.000000	98.437509
760.000000	98.432279
750.000000	98.452789
740.000000	98.389009
730.000000	98.395477
720.000000	98.530255
710.000000	98.405229
700.000000	98.416000
690.000000	98.462282
680.000000	98.374063
670.000000	98.408720
660.000000	98.448958
650.000000	98.446189
640.000000	98.432409
630.000000	98.453463
620.000000	98.386719
610.000000	98.300386
600.000000	98.379411
590.000000	98.513306
580.000000	98.479373
570.000000	98.481876
560.000000	98.562085
550.000000	98.520330
540.000000	98.438971
530.000000	98.579023
520.000000	98.417845
510.000000	98.332740
500.000000	98.457283
490.000000	98.455573
480.000000	98.399697
470.000000	98.393907
460.000000	98.350071
450.000000	98.312294
440.000000	98.206871
430.000000	98.245675
420.000000	98.381737
410.000000	98.447499
400.000000	98.360111
390.000000	98.647420
380.000000	98.691540
370.000000	98.529335
360.000000	98.298679
350.000000	97.889014
340.000000	97.519907
330.000000	97.533474
320.000000	97.435574
310.000000	97.231935
300.000000	97.165782
