PE UV       SUBTECH     SPECTRUM    ASCII       PEDS        4.00        
   -1
10_TT.Sample.asc
23/04/12
11:49:56.00
23/04/12
11:49:56.00
Analyst

300.000000
1
Lambda 950
950L1311181
PerkinElmer UV WinLab 6.0.4.0738 / 1.61.00 Lambda 900

0
0
3350/servo 860.8/5
0
0
UV/VIS
1
1
1
RBeamAtt,SBeamAtt,150mm sphere / downward view, WB InGaAs Detector
0
0
0
0
Program
Program
3350/servo 860.8/5
3350/0.2 860.8/0.2
3350/0.2 860.8/0.2
0
9.50
 
 
 
0
 
860.8
319.2
860.8
Front
100
 
S:100 R:100
 
0
0
0
 
0
 
 
 
0
 
 
0
0
0
0
0
 
 
 
 
0
0


0
0
#HDR
-1
-1
#GR
nm
%R
1.0
0.0
1200.000000
-10.000000
91
8
74.985411
-1.023196
#DATA
1200.000000	38.880763
1190.000000	38.678334
1180.000000	38.704985
1170.000000	38.994918
1160.000000	39.575808
1150.000000	40.430044
1140.000000	41.598485
1130.000000	43.093613
1120.000000	44.951700
1110.000000	47.148237
1100.000000	49.650362
1090.000000	52.459194
1080.000000	55.568660
1070.000000	58.870914
1060.000000	62.171389
1050.000000	65.241439
1040.000000	68.102562
1030.000000	70.427376
1020.000000	72.072018
1010.000000	72.893590
1000.000000	72.895001
990.000000	72.106342
980.000000	70.618824
970.000000	68.645494
960.000000	66.368795
950.000000	64.064387
940.000000	61.911602
930.000000	60.036782
920.000000	58.636432
910.000000	57.779750
900.000000	57.588852
890.000000	58.147580
880.000000	59.414670
870.000000	61.327710
860.000000	63.979642
850.000000	64.964614
840.000000	67.282705
830.000000	70.636320
820.000000	73.491971
810.000000	74.985411
800.000000	74.491807
790.000000	70.680231
780.000000	61.243267
770.000000	45.625183
760.000000	28.284987
750.000000	17.138160
740.000000	12.735003
730.000000	11.261376
720.000000	10.579415
710.000000	9.986009
700.000000	9.383718
690.000000	8.718319
680.000000	7.954286
670.000000	7.216436
660.000000	6.402218
650.000000	5.584728
640.000000	4.749255
630.000000	3.966089
620.000000	3.228090
610.000000	2.557741
600.000000	1.960691
590.000000	1.462383
580.000000	1.057643
570.000000	0.737473
560.000000	0.480934
550.000000	0.348959
540.000000	0.277590
530.000000	0.219113
520.000000	0.189033
510.000000	0.165511
500.000000	0.113344
490.000000	0.096420
480.000000	0.205443
470.000000	0.174066
460.000000	0.123511
450.000000	0.080793
440.000000	0.134381
430.000000	0.114188
420.000000	0.102006
410.000000	0.088935
400.000000	0.063709
390.000000	0.043251
380.000000	0.013412
370.000000	-0.051376
360.000000	0.133689
350.000000	-0.034500
340.000000	-0.152881
330.000000	-0.422295
320.000000	-1.014090
310.000000	-1.023196
300.000000	-0.540146
