PE UV       SUBTECH     SPECTRUM    ASCII       PEDS        4.00        
   -1
1_TT.Sample.asc
23/04/12
11:28:09.00
23/04/12
11:28:09.00
Analyst

300.000000
1
Lambda 950
950L1311181
PerkinElmer UV WinLab 6.0.4.0738 / 1.61.00 Lambda 900

0
0
3350/servo 860.8/5
0
0
UV/VIS
1
1
1
RBeamAtt,SBeamAtt,150mm sphere / downward view, WB InGaAs Detector
0
0
0
0
Program
Program
3350/servo 860.8/5
3350/0.2 860.8/0.2
3350/0.2 860.8/0.2
0
9.50
 
 
 
0
 
860.8
319.2
860.8
Front
100
 
S:100 R:100
 
0
0
0
 
0
 
 
 
0
 
 
0
0
0
0
0
 
 
 
 
0
0


0
0
#HDR
-1
-1
#GR
nm
%R
1.0
0.0
1200.000000
-10.000000
91
8
68.194234
-1.084800
#DATA
1200.000000	48.639628
1190.000000	48.703520
1180.000000	48.798271
1170.000000	48.957014
1160.000000	49.202149
1150.000000	49.506117
1140.000000	49.876146
1130.000000	50.327424
1120.000000	50.894469
1110.000000	51.537519
1100.000000	52.277666
1090.000000	53.119421
1080.000000	54.079288
1070.000000	55.134399
1060.000000	56.228263
1050.000000	57.312872
1040.000000	58.478232
1030.000000	59.601254
1020.000000	60.667277
1010.000000	61.634628
1000.000000	62.452933
990.000000	63.082615
980.000000	63.598001
970.000000	63.916536
960.000000	64.154806
950.000000	64.231058
940.000000	64.242680
930.000000	64.175280
920.000000	64.198838
910.000000	64.179616
900.000000	64.276763
890.000000	64.442408
880.000000	64.698268
870.000000	65.038057
860.000000	65.619736
850.000000	65.513618
840.000000	65.663982
830.000000	67.024142
820.000000	67.663739
810.000000	68.194234
800.000000	67.896423
790.000000	65.372659
780.000000	58.032946
770.000000	43.645027
760.000000	26.893069
750.000000	16.319714
740.000000	12.206575
730.000000	10.821210
720.000000	10.129155
710.000000	9.522851
700.000000	8.876775
690.000000	8.191962
680.000000	7.438909
670.000000	6.722466
660.000000	5.959544
650.000000	5.172193
640.000000	4.407687
630.000000	3.651460
620.000000	2.958821
610.000000	2.321288
600.000000	1.744155
590.000000	1.269350
580.000000	0.875179
570.000000	0.566279
560.000000	0.333814
550.000000	0.196562
540.000000	0.124710
530.000000	0.067225
520.000000	0.034512
510.000000	0.016473
500.000000	-0.033768
490.000000	-0.057921
480.000000	0.050818
470.000000	0.026210
460.000000	-0.026691
450.000000	-0.064878
440.000000	-0.005903
430.000000	-0.011714
420.000000	-0.025957
410.000000	-0.032688
400.000000	-0.055865
390.000000	-0.085189
380.000000	-0.107471
370.000000	-0.167238
360.000000	0.018443
350.000000	-0.152290
340.000000	-0.267518
330.000000	-0.524652
320.000000	-1.081125
310.000000	-1.084800
300.000000	-1.003143
