PE UV       SUBTECH     SPECTRUM    ASCII       PEDS        4.00        
   -1
2_TT.Sample.asc
23/04/12
11:30:53.00
23/04/12
11:30:53.00
Analyst

300.000000
1
Lambda 950
950L1311181
PerkinElmer UV WinLab 6.0.4.0738 / 1.61.00 Lambda 900

0
0
3350/servo 860.8/5
0
0
UV/VIS
1
1
1
RBeamAtt,SBeamAtt,150mm sphere / downward view, WB InGaAs Detector
0
0
0
0
Program
Program
3350/servo 860.8/5
3350/0.2 860.8/0.2
3350/0.2 860.8/0.2
0
9.50
 
 
 
0
 
860.8
319.2
860.8
Front
100
 
S:100 R:100
 
0
0
0
 
0
 
 
 
0
 
 
0
0
0
0
0
 
 
 
 
0
0


0
0
#HDR
-1
-1
#GR
nm
%R
1.0
0.0
1200.000000
-10.000000
91
8
75.272102
-1.086807
#DATA
1200.000000	38.092536
1190.000000	39.575822
1180.000000	41.417169
1170.000000	43.548055
1160.000000	46.071087
1150.000000	48.906115
1140.000000	52.004784
1130.000000	55.338497
1120.000000	58.805764
1110.000000	62.154843
1100.000000	65.271683
1090.000000	67.913654
1080.000000	69.976236
1070.000000	71.224400
1060.000000	71.599660
1050.000000	71.008446
1040.000000	69.739780
1030.000000	67.815097
1020.000000	65.495947
1010.000000	63.021843
1000.000000	60.538912
990.000000	58.239130
980.000000	56.349019
970.000000	54.928670
960.000000	54.109367
950.000000	53.897164
940.000000	54.401499
930.000000	55.568103
920.000000	57.508733
910.000000	60.049329
900.000000	63.150637
890.000000	66.506010
880.000000	69.835700
870.000000	72.671790
860.000000	74.666945
850.000000	75.272102
840.000000	74.933706
830.000000	74.574294
820.000000	72.649764
810.000000	69.540513
800.000000	65.612923
790.000000	60.741764
780.000000	53.094212
770.000000	40.373154
760.000000	25.537402
750.000000	15.817612
740.000000	11.818904
730.000000	10.371461
720.000000	9.611083
710.000000	8.955831
700.000000	8.298121
690.000000	7.584469
680.000000	6.813660
670.000000	6.073526
660.000000	5.313473
650.000000	4.553693
640.000000	3.822639
630.000000	3.133754
620.000000	2.498126
610.000000	1.917957
600.000000	1.408049
590.000000	0.997583
580.000000	0.674539
570.000000	0.406357
560.000000	0.230289
550.000000	0.130663
540.000000	0.081454
530.000000	0.040893
520.000000	0.022224
510.000000	0.010285
500.000000	-0.040486
490.000000	-0.053915
480.000000	0.049254
470.000000	0.024817
460.000000	-0.031663
450.000000	-0.065747
440.000000	-0.009375
430.000000	-0.016920
420.000000	-0.030732
410.000000	-0.039121
400.000000	-0.057783
390.000000	-0.083087
380.000000	-0.109324
370.000000	-0.168130
360.000000	0.014664
350.000000	-0.159663
340.000000	-0.265675
330.000000	-0.520708
320.000000	-1.086807
310.000000	-0.873423
300.000000	2.811070
