PE UV       SUBTECH     SPECTRUM    ASCII       PEDS        4.00        
   -1
3_TR.Sample.asc
23/04/12
12:00:11.00
23/04/12
12:00:11.00
Analyst

300.000000
1
Lambda 950
950L1311181
PerkinElmer UV WinLab 6.0.4.0738 / 1.61.00 Lambda 900

0
0
3350/servo 860.8/5
0
0
UV/VIS
1
1
1
RBeamAtt,SBeamAtt,150mm sphere / downward view, WB InGaAs Detector
0
0
0
0
Program
Program
3350/servo 860.8/5
3350/0.2 860.8/0.2
3350/0.2 860.8/0.2
0
9.50
 
 
 
0
 
860.8
319.2
860.8
Front
100
 
S:100 R:100
 
0
0
0
 
0
 
 
 
0
 
 
0
0
0
0
0
 
 
 
 
0
0


0
0
#HDR
-1
-1
#GR
nm
%R
1.0
0.0
1200.000000
-10.000000
91
8
50.127305
5.839065
#DATA
1200.000000	50.127305
1190.000000	49.957529
1180.000000	49.414196
1170.000000	48.517367
1160.000000	47.192493
1150.000000	45.408599
1140.000000	43.208576
1130.000000	40.549126
1120.000000	37.440121
1110.000000	33.941910
1100.000000	30.103461
1090.000000	26.050774
1080.000000	21.930469
1070.000000	18.037046
1060.000000	14.628156
1050.000000	11.953903
1040.000000	10.205120
1030.000000	9.539934
1020.000000	9.991730
1010.000000	11.459161
1000.000000	13.773222
990.000000	16.692168
980.000000	19.931694
970.000000	23.178456
960.000000	26.338486
950.000000	29.068689
940.000000	31.250983
930.000000	32.725543
920.000000	33.477294
910.000000	33.355424
900.000000	32.409853
890.000000	30.570997
880.000000	27.921916
870.000000	24.648465
860.000000	21.085917
850.000000	19.572069
840.000000	16.724366
830.000000	14.473870
820.000000	13.181318
810.000000	13.433504
800.000000	15.424646
790.000000	18.741826
780.000000	21.598400
770.000000	21.803879
760.000000	19.459371
750.000000	17.344745
740.000000	16.350031
730.000000	15.833504
720.000000	15.388998
710.000000	14.965871
700.000000	14.522376
690.000000	14.137884
680.000000	13.847148
670.000000	13.789034
660.000000	13.870909
650.000000	14.076828
640.000000	14.304461
630.000000	14.434721
620.000000	14.398702
610.000000	14.249363
600.000000	14.056141
590.000000	13.935060
580.000000	13.863223
570.000000	13.816676
560.000000	13.710067
550.000000	13.583641
540.000000	13.407061
530.000000	13.179113
520.000000	12.926143
510.000000	12.713434
500.000000	12.658305
490.000000	12.411484
480.000000	11.907107
470.000000	11.435938
460.000000	11.167486
450.000000	11.084578
440.000000	11.141412
430.000000	11.095141
420.000000	10.889677
410.000000	10.453518
400.000000	9.793746
390.000000	9.066513
380.000000	8.387605
370.000000	7.621783
360.000000	7.301808
350.000000	7.011513
340.000000	7.097480
330.000000	7.179670
320.000000	6.987292
310.000000	7.184706
300.000000	5.839065
