PE UV       SUBTECH     SPECTRUM    ASCII       PEDS        4.00        
   -1
3_TT.Sample.asc
23/04/12
11:33:26.00
23/04/12
11:33:26.00
Analyst

300.000000
1
Lambda 950
950L1311181
PerkinElmer UV WinLab 6.0.4.0738 / 1.61.00 Lambda 900

0
0
3350/servo 860.8/5
0
0
UV/VIS
1
1
1
RBeamAtt,SBeamAtt,150mm sphere / downward view, WB InGaAs Detector
0
0
0
0
Program
Program
3350/servo 860.8/5
3350/0.2 860.8/0.2
3350/0.2 860.8/0.2
0
9.50
 
 
 
0
 
860.8
319.2
860.8
Front
100
 
S:100 R:100
 
0
0
0
 
0
 
 
 
0
 
 
0
0
0
0
0
 
 
 
 
0
0


0
0
#HDR
-1
-1
#GR
nm
%R
1.0
0.0
1200.000000
-10.000000
91
8
74.977776
-1.619766
#DATA
1200.000000	37.892504
1190.000000	38.338520
1180.000000	39.069597
1170.000000	40.076031
1160.000000	41.408360
1150.000000	43.054804
1140.000000	45.032331
1130.000000	47.352278
1120.000000	50.011074
1110.000000	52.941792
1100.000000	56.078088
1090.000000	59.328925
1080.000000	62.629730
1070.000000	65.733723
1060.000000	68.404687
1050.000000	70.414653
1040.000000	71.777370
1030.000000	72.309716
1020.000000	72.035817
1010.000000	70.980553
1000.000000	69.344547
990.000000	67.279041
980.000000	65.021602
970.000000	62.728585
960.000000	60.630104
950.000000	58.852746
940.000000	57.512068
930.000000	56.690844
920.000000	56.558495
910.000000	57.022963
900.000000	58.196679
890.000000	60.034482
880.000000	62.502803
870.000000	65.338278
860.000000	68.445885
850.000000	69.516549
840.000000	71.407427
830.000000	74.106591
820.000000	74.977776
810.000000	74.283591
800.000000	71.716326
790.000000	66.462171
780.000000	57.218683
770.000000	43.101430
760.000000	27.597130
750.000000	17.057122
740.000000	12.566146
730.000000	10.938334
720.000000	10.194924
710.000000	9.589590
700.000000	8.977787
690.000000	8.281006
680.000000	7.509454
670.000000	6.774267
660.000000	5.959111
650.000000	5.156997
640.000000	4.367426
630.000000	3.602084
620.000000	2.899981
610.000000	2.268191
600.000000	1.698596
590.000000	1.220152
580.000000	0.835680
570.000000	0.528090
560.000000	0.307780
550.000000	0.173607
540.000000	0.103780
530.000000	0.060075
520.000000	0.023531
510.000000	0.005491
500.000000	-0.030626
490.000000	-0.061057
480.000000	0.049775
470.000000	0.033699
460.000000	-0.029046
450.000000	-0.070183
440.000000	-0.007379
430.000000	-0.019349
420.000000	-0.032729
410.000000	-0.040425
400.000000	-0.052030
390.000000	-0.078009
380.000000	-0.105265
370.000000	-0.167417
360.000000	0.019433
350.000000	-0.148740
340.000000	-0.257381
330.000000	-0.522680
320.000000	-1.080836
310.000000	-1.116179
300.000000	-1.619766
