PE UV       SUBTECH     SPECTRUM    ASCII       PEDS        4.00        
   -1
4_TT.Sample.asc
23/04/12
11:35:56.00
23/04/12
11:35:56.00
Analyst

300.000000
1
Lambda 950
950L1311181
PerkinElmer UV WinLab 6.0.4.0738 / 1.61.00 Lambda 900

0
0
3350/servo 860.8/5
0
0
UV/VIS
1
1
1
RBeamAtt,SBeamAtt,150mm sphere / downward view, WB InGaAs Detector
0
0
0
0
Program
Program
3350/servo 860.8/5
3350/0.2 860.8/0.2
3350/0.2 860.8/0.2
0
9.50
 
 
 
0
 
860.8
319.2
860.8
Front
100
 
S:100 R:100
 
0
0
0
 
0
 
 
 
0
 
 
0
0
0
0
0
 
 
 
 
0
0


0
0
#HDR
-1
-1
#GR
nm
%R
1.0
0.0
1200.000000
-10.000000
91
8
74.431833
-1.915187
#DATA
1200.000000	37.139221
1190.000000	37.982376
1180.000000	39.135633
1170.000000	40.575818
1160.000000	42.372633
1150.000000	44.497726
1140.000000	46.945801
1130.000000	49.726963
1120.000000	52.791617
1110.000000	56.041969
1100.000000	59.338780
1090.000000	62.555046
1080.000000	65.563956
1070.000000	68.122578
1060.000000	69.982825
1050.000000	70.987801
1040.000000	71.227022
1030.000000	70.642450
1020.000000	69.343424
1010.000000	67.508649
1000.000000	65.316300
990.000000	62.916759
980.000000	60.624469
970.000000	58.530597
960.000000	56.816306
950.000000	55.579030
940.000000	54.917210
930.000000	54.845046
920.000000	55.496707
910.000000	56.787744
900.000000	58.839318
890.000000	61.436379
880.000000	64.492652
870.000000	67.646726
860.000000	70.709717
850.000000	71.853861
840.000000	72.839078
830.000000	74.431833
820.000000	74.123246
810.000000	72.178774
800.000000	68.714491
790.000000	63.280820
780.000000	54.848668
770.000000	41.961363
760.000000	27.101806
750.000000	16.751359
740.000000	12.288346
730.000000	10.685429
720.000000	9.906407
710.000000	9.276722
700.000000	8.636712
690.000000	7.954483
680.000000	7.189585
670.000000	6.443744
660.000000	5.654924
650.000000	4.877748
640.000000	4.117859
630.000000	3.384726
620.000000	2.717011
610.000000	2.113955
600.000000	1.584873
590.000000	1.125340
580.000000	0.771364
570.000000	0.479851
560.000000	0.262002
550.000000	0.157023
540.000000	0.097414
530.000000	0.049612
520.000000	0.028847
510.000000	-0.003399
500.000000	-0.041795
490.000000	-0.061928
480.000000	0.044129
470.000000	0.020115
460.000000	-0.025819
450.000000	-0.075488
440.000000	-0.012761
430.000000	-0.021085
420.000000	-0.031340
410.000000	-0.042685
400.000000	-0.053425
390.000000	-0.080461
380.000000	-0.110383
370.000000	-0.175266
360.000000	0.011606
350.000000	-0.154292
340.000000	-0.271942
330.000000	-0.519018
320.000000	-1.083340
310.000000	-1.126767
300.000000	-1.915187
