PE UV       SUBTECH     SPECTRUM    ASCII       PEDS        4.00        
   -1
5_TR.Sample.asc
23/04/12
12:05:25.00
23/04/12
12:05:25.00
Analyst

300.000000
1
Lambda 950
950L1311181
PerkinElmer UV WinLab 6.0.4.0738 / 1.61.00 Lambda 900

0
0
3350/servo 860.8/5
0
0
UV/VIS
1
1
1
RBeamAtt,SBeamAtt,150mm sphere / downward view, WB InGaAs Detector
0
0
0
0
Program
Program
3350/servo 860.8/5
3350/0.2 860.8/0.2
3350/0.2 860.8/0.2
0
9.50
 
 
 
0
 
860.8
319.2
860.8
Front
100
 
S:100 R:100
 
0
0
0
 
0
 
 
 
0
 
 
0
0
0
0
0
 
 
 
 
0
0


0
0
#HDR
-1
-1
#GR
nm
%R
1.0
0.0
1200.000000
-10.000000
91
8
48.288381
6.394864
#DATA
1200.000000	47.946223
1190.000000	48.266009
1180.000000	48.288381
1170.000000	47.976103
1160.000000	47.295364
1150.000000	46.235519
1140.000000	44.812555
1130.000000	43.000396
1120.000000	40.788681
1110.000000	38.211048
1100.000000	35.282505
1090.000000	32.045821
1080.000000	28.598551
1070.000000	25.077980
1060.000000	21.673042
1050.000000	18.525532
1040.000000	15.849769
1030.000000	13.864846
1020.000000	12.686525
1010.000000	12.396710
1000.000000	13.019767
990.000000	14.454385
980.000000	16.549479
970.000000	19.056438
960.000000	21.810745
950.000000	24.511092
940.000000	27.017413
930.000000	29.053844
920.000000	30.562249
910.000000	31.371760
900.000000	31.496130
890.000000	30.859319
880.000000	29.495199
870.000000	27.423176
860.000000	24.847003
850.000000	23.675376
840.000000	21.154527
830.000000	18.583752
820.000000	16.352496
810.000000	15.002940
800.000000	15.033945
790.000000	16.763121
780.000000	18.984683
770.000000	19.813762
760.000000	18.378764
750.000000	16.903611
740.000000	16.236869
730.000000	15.923572
720.000000	15.732309
710.000000	15.452754
700.000000	15.155520
690.000000	14.821100
680.000000	14.500684
670.000000	14.285943
660.000000	14.172756
650.000000	14.187799
640.000000	14.325331
630.000000	14.458756
620.000000	14.577663
610.000000	14.570302
600.000000	14.437718
590.000000	14.339564
580.000000	14.234005
570.000000	14.144908
560.000000	14.058472
550.000000	13.967600
540.000000	13.814419
530.000000	13.612717
520.000000	13.346303
510.000000	13.060930
500.000000	12.767286
490.000000	12.261672
480.000000	11.634863
470.000000	11.077095
460.000000	10.645442
450.000000	10.330486
440.000000	10.224615
430.000000	10.149013
420.000000	10.053399
410.000000	9.838191
400.000000	9.403038
390.000000	8.828020
380.000000	8.261427
370.000000	7.612239
360.000000	7.288493
350.000000	6.835829
340.000000	6.639483
330.000000	6.567591
320.000000	6.394864
310.000000	6.855801
300.000000	7.533479
