PE UV       SUBTECH     SPECTRUM    ASCII       PEDS        4.00        
   -1
5_TT.Sample.asc
23/04/12
11:38:17.00
23/04/12
11:38:17.00
Analyst

300.000000
1
Lambda 950
950L1311181
PerkinElmer UV WinLab 6.0.4.0738 / 1.61.00 Lambda 900

0
0
3350/servo 860.8/5
0
0
UV/VIS
1
1
1
RBeamAtt,SBeamAtt,150mm sphere / downward view, WB InGaAs Detector
0
0
0
0
Program
Program
3350/servo 860.8/5
3350/0.2 860.8/0.2
3350/0.2 860.8/0.2
0
9.50
 
 
 
0
 
860.8
319.2
860.8
Front
100
 
S:100 R:100
 
0
0
0
 
0
 
 
 
0
 
 
0
0
0
0
0
 
 
 
 
0
0


0
0
#HDR
-1
-1
#GR
nm
%R
1.0
0.0
1200.000000
-10.000000
91
8
73.231142
-1.076309
#DATA
1200.000000	39.649251
1190.000000	39.738933
1180.000000	40.066077
1170.000000	40.640672
1160.000000	41.483064
1150.000000	42.588356
1140.000000	43.959125
1130.000000	45.608406
1120.000000	47.558682
1110.000000	49.766525
1100.000000	52.163945
1090.000000	54.758094
1080.000000	57.518357
1070.000000	60.322254
1060.000000	62.996217
1050.000000	65.354711
1040.000000	67.467294
1030.000000	69.068139
1020.000000	70.070292
1010.000000	70.404266
1000.000000	70.146562
990.000000	69.288428
980.000000	67.987575
970.000000	66.315011
960.000000	64.575866
950.000000	62.819596
940.000000	61.291128
930.000000	60.042176
920.000000	59.258251
910.000000	58.909670
900.000000	59.174597
890.000000	60.024063
880.000000	61.402657
870.000000	63.231855
860.000000	65.509866
850.000000	66.323871
840.000000	67.986214
830.000000	70.822194
820.000000	72.582147
810.000000	73.231142
800.000000	72.185655
790.000000	68.182680
780.000000	58.988716
770.000000	43.449551
760.000000	26.319228
750.000000	15.872281
740.000000	12.068941
730.000000	10.825790
720.000000	10.199433
710.000000	9.635590
700.000000	9.005374
690.000000	8.316246
680.000000	7.566546
670.000000	6.834197
660.000000	6.039621
650.000000	5.231846
640.000000	4.442122
630.000000	3.665654
620.000000	2.951761
610.000000	2.314139
600.000000	1.729929
590.000000	1.250387
580.000000	0.867664
570.000000	0.559550
560.000000	0.330669
550.000000	0.192023
540.000000	0.122879
530.000000	0.071497
520.000000	0.040700
510.000000	0.014555
500.000000	-0.024780
490.000000	-0.056789
480.000000	0.063588
470.000000	0.040665
460.000000	-0.019102
450.000000	-0.057050
440.000000	0.004514
430.000000	-0.010759
420.000000	-0.025610
410.000000	-0.032340
400.000000	-0.046453
390.000000	-0.073719
380.000000	-0.106148
370.000000	-0.158676
360.000000	0.022761
350.000000	-0.146282
340.000000	-0.256644
330.000000	-0.522117
320.000000	-1.076309
310.000000	-0.984790
300.000000	0.833451
