PE UV       SUBTECH     SPECTRUM    ASCII       PEDS        4.00        
   -1
6_TT.Sample.asc
23/04/12
11:40:32.00
23/04/12
11:40:32.00
Analyst

300.000000
1
Lambda 950
950L1311181
PerkinElmer UV WinLab 6.0.4.0738 / 1.61.00 Lambda 900

0
0
3350/servo 860.8/5
0
0
UV/VIS
1
1
1
RBeamAtt,SBeamAtt,150mm sphere / downward view, WB InGaAs Detector
0
0
0
0
Program
Program
3350/servo 860.8/5
3350/0.2 860.8/0.2
3350/0.2 860.8/0.2
0
9.50
 
 
 
0
 
860.8
319.2
860.8
Front
100
 
S:100 R:100
 
0
0
0
 
0
 
 
 
0
 
 
0
0
0
0
0
 
 
 
 
0
0


0
0
#HDR
-1
-1
#GR
nm
%R
1.0
0.0
1200.000000
-10.000000
91
8
71.852108
-1.084496
#DATA
1200.000000	41.584308
1190.000000	41.678235
1180.000000	41.928192
1170.000000	42.407649
1160.000000	43.090469
1150.000000	44.002572
1140.000000	45.124115
1130.000000	46.494907
1120.000000	48.117119
1110.000000	49.938293
1100.000000	51.952253
1090.000000	54.099834
1080.000000	56.393636
1070.000000	58.690641
1060.000000	60.884075
1050.000000	62.796793
1040.000000	64.486594
1030.000000	65.785453
1020.000000	66.633946
1010.000000	66.999770
1000.000000	66.957047
990.000000	66.454695
980.000000	65.696060
970.000000	64.710407
960.000000	63.670246
950.000000	62.641897
940.000000	61.723010
930.000000	61.001330
920.000000	60.598168
910.000000	60.501158
900.000000	60.825744
890.000000	61.583188
880.000000	62.698002
870.000000	64.162112
860.000000	65.935036
850.000000	66.879400
840.000000	67.989047
830.000000	70.362507
820.000000	71.516526
810.000000	71.852108
800.000000	70.632631
790.000000	66.797153
780.000000	57.787760
770.000000	42.190954
760.000000	25.229767
750.000000	15.459363
740.000000	12.038478
730.000000	10.896098
720.000000	10.257630
710.000000	9.673738
700.000000	9.036646
690.000000	8.343234
680.000000	7.556197
670.000000	6.823128
660.000000	6.023241
650.000000	5.221686
640.000000	4.424731
630.000000	3.653114
620.000000	2.941300
610.000000	2.286064
600.000000	1.723907
590.000000	1.241736
580.000000	0.841797
570.000000	0.541460
560.000000	0.308654
550.000000	0.178669
540.000000	0.104390
530.000000	0.056762
520.000000	0.026581
510.000000	0.010110
500.000000	-0.052266
490.000000	-0.060622
480.000000	0.049775
470.000000	0.023598
460.000000	-0.036373
450.000000	-0.077314
440.000000	-0.010244
430.000000	-0.023601
420.000000	-0.031427
410.000000	-0.042337
400.000000	-0.060484
390.000000	-0.085626
380.000000	-0.113030
370.000000	-0.171430
360.000000	0.013405
350.000000	-0.163213
340.000000	-0.270744
330.000000	-0.526624
320.000000	-1.084496
310.000000	-0.908749
300.000000	2.262170
