PE UV       SUBTECH     SPECTRUM    ASCII       PEDS        4.00        
   -1
7_TT.Sample.asc
23/04/12
11:43:04.00
23/04/12
11:43:04.00
Analyst

300.000000
1
Lambda 950
950L1311181
PerkinElmer UV WinLab 6.0.4.0738 / 1.61.00 Lambda 900

0
0
3350/servo 860.8/5
0
0
UV/VIS
1
1
1
RBeamAtt,SBeamAtt,150mm sphere / downward view, WB InGaAs Detector
0
0
0
0
Program
Program
3350/servo 860.8/5
3350/0.2 860.8/0.2
3350/0.2 860.8/0.2
0
9.50
 
 
 
0
 
860.8
319.2
860.8
Front
100
 
S:100 R:100
 
0
0
0
 
0
 
 
 
0
 
 
0
0
0
0
0
 
 
 
 
0
0


0
0
#HDR
-1
-1
#GR
nm
%R
1.0
0.0
1200.000000
-10.000000
91
8
74.022341
-0.818268
#DATA
1200.000000	39.300282
1190.000000	39.799344
1180.000000	40.548893
1170.000000	41.550130
1160.000000	42.860422
1150.000000	44.424973
1140.000000	46.262022
1130.000000	48.364510
1120.000000	50.730676
1110.000000	53.275848
1100.000000	55.942241
1090.000000	58.652684
1080.000000	61.398859
1070.000000	63.970033
1060.000000	66.224758
1050.000000	67.937272
1040.000000	69.226183
1030.000000	69.873441
1020.000000	69.866757
1010.000000	69.244325
1000.000000	68.120183
990.000000	66.549601
980.000000	64.790438
970.000000	62.935733
960.000000	61.225432
950.000000	59.768228
940.000000	58.694845
930.000000	58.086289
920.000000	58.032693
910.000000	58.513059
900.000000	59.653087
890.000000	61.253787
880.000000	63.406649
870.000000	65.812276
860.000000	68.476344
850.000000	69.298398
840.000000	70.902009
830.000000	73.105153
820.000000	74.022341
810.000000	73.464625
800.000000	71.387958
790.000000	67.046507
780.000000	58.667461
770.000000	44.835478
760.000000	28.401509
750.000000	17.088278
740.000000	12.588930
730.000000	11.143829
720.000000	10.496459
710.000000	9.936595
700.000000	9.350819
690.000000	8.695628
680.000000	7.935313
670.000000	7.214101
660.000000	6.429084
650.000000	5.626147
640.000000	4.835864
630.000000	4.089224
620.000000	3.397811
610.000000	2.784778
600.000000	2.229157
590.000000	1.750577
580.000000	1.380275
570.000000	1.092009
560.000000	0.872757
550.000000	0.769752
540.000000	0.706576
530.000000	0.655071
520.000000	0.632637
510.000000	0.632848
500.000000	0.605286
490.000000	0.564930
480.000000	0.650816
470.000000	0.635136
460.000000	0.581009
450.000000	0.528848
440.000000	0.571034
430.000000	0.543868
420.000000	0.523141
410.000000	0.511266
400.000000	0.481608
390.000000	0.445993
380.000000	0.413385
370.000000	0.358202
360.000000	0.576411
350.000000	0.405256
340.000000	0.276549
330.000000	-0.048549
320.000000	-0.743063
310.000000	-0.818268
300.000000	0.893093
