PE UV       SUBTECH     SPECTRUM    ASCII       PEDS        4.00        
   -1
8_TT.Sample.asc
23/04/12
11:45:27.00
23/04/12
11:45:27.00
Analyst

300.000000
1
Lambda 950
950L1311181
PerkinElmer UV WinLab 6.0.4.0738 / 1.61.00 Lambda 900

0
0
3350/servo 860.8/5
0
0
UV/VIS
1
1
1
RBeamAtt,SBeamAtt,150mm sphere / downward view, WB InGaAs Detector
0
0
0
0
Program
Program
3350/servo 860.8/5
3350/0.2 860.8/0.2
3350/0.2 860.8/0.2
0
9.50
 
 
 
0
 
860.8
319.2
860.8
Front
100
 
S:100 R:100
 
0
0
0
 
0
 
 
 
0
 
 
0
0
0
0
0
 
 
 
 
0
0


0
0
#HDR
-1
-1
#GR
nm
%R
1.0
0.0
1200.000000
-10.000000
91
8
73.129418
-1.064270
#DATA
1200.000000	38.724270
1190.000000	40.075916
1180.000000	41.759234
1170.000000	43.700008
1160.000000	45.958513
1150.000000	48.472796
1140.000000	51.188970
1130.000000	54.115869
1120.000000	57.127163
1110.000000	60.093252
1100.000000	62.877727
1090.000000	65.354595
1080.000000	67.410028
1070.000000	68.874588
1060.000000	69.597825
1050.000000	69.546514
1040.000000	68.847807
1030.000000	67.531139
1020.000000	65.769296
1010.000000	63.746484
1000.000000	61.631458
990.000000	59.578234
980.000000	57.805774
970.000000	56.389222
960.000000	55.465813
950.000000	55.109858
940.000000	55.367355
930.000000	56.210604
920.000000	57.706995
910.000000	59.703849
900.000000	62.199862
890.000000	64.882747
880.000000	67.710692
870.000000	70.229668
860.000000	72.203374
850.000000	73.129418
840.000000	72.800593
830.000000	73.074756
820.000000	71.912143
810.000000	69.516632
800.000000	66.212214
790.000000	61.589699
780.000000	53.815016
770.000000	40.862549
760.000000	25.689925
750.000000	15.594147
740.000000	11.526421
730.000000	10.073353
720.000000	9.374892
710.000000	8.742473
700.000000	8.125913
690.000000	7.461733
680.000000	6.689817
670.000000	5.998635
660.000000	5.234350
650.000000	4.489699
640.000000	3.779334
630.000000	3.107542
620.000000	2.473806
610.000000	1.914470
600.000000	1.417737
590.000000	1.000992
580.000000	0.690793
570.000000	0.435196
560.000000	0.243306
550.000000	0.154491
540.000000	0.109710
530.000000	0.066353
520.000000	0.048805
510.000000	0.025101
500.000000	-0.018760
490.000000	-0.044595
480.000000	0.075662
470.000000	0.051723
460.000000	-0.008461
450.000000	-0.047049
440.000000	0.014758
430.000000	-0.002256
420.000000	-0.010504
410.000000	-0.018778
400.000000	-0.039219
390.000000	-0.062337
380.000000	-0.088942
370.000000	-0.146545
360.000000	0.038146
350.000000	-0.141457
340.000000	-0.251115
330.000000	-0.517985
320.000000	-1.064270
310.000000	-1.002116
300.000000	0.298115
