PE UV       SUBTECH     SPECTRUM    ASCII       PEDS        4.00        
   -1
9_TT.Sample.asc
23/04/12
11:47:41.00
23/04/12
11:47:41.00
Analyst

300.000000
1
Lambda 950
950L1311181
PerkinElmer UV WinLab 6.0.4.0738 / 1.61.00 Lambda 900

0
0
3350/servo 860.8/5
0
0
UV/VIS
1
1
1
RBeamAtt,SBeamAtt,150mm sphere / downward view, WB InGaAs Detector
0
0
0
0
Program
Program
3350/servo 860.8/5
3350/0.2 860.8/0.2
3350/0.2 860.8/0.2
0
9.50
 
 
 
0
 
860.8
319.2
860.8
Front
100
 
S:100 R:100
 
0
0
0
 
0
 
 
 
0
 
 
0
0
0
0
0
 
 
 
 
0
0


0
0
#HDR
-1
-1
#GR
nm
%R
1.0
0.0
1200.000000
-10.000000
91
8
76.141209
-1.084688
#DATA
1200.000000	37.554018
1190.000000	38.422624
1180.000000	39.470340
1170.000000	40.626344
1160.000000	41.989034
1150.000000	43.504029
1140.000000	45.175933
1130.000000	47.059565
1120.000000	49.132751
1110.000000	51.389310
1100.000000	53.767947
1090.000000	56.294503
1080.000000	58.978362
1070.000000	61.738474
1060.000000	64.424607
1050.000000	66.945911
1040.000000	69.409200
1030.000000	71.584407
1020.000000	73.390649
1010.000000	74.783513
1000.000000	75.717243
990.000000	76.141209
980.000000	76.140721
970.000000	75.616727
960.000000	74.778706
950.000000	73.560620
940.000000	72.136827
930.000000	70.552097
920.000000	68.941864
910.000000	67.310505
900.000000	65.827352
890.000000	64.498432
880.000000	63.375230
870.000000	62.535235
860.000000	62.014124
850.000000	61.963665
840.000000	61.379340
830.000000	62.082903
820.000000	62.938579
810.000000	63.832925
800.000000	65.105460
790.000000	66.186129
780.000000	66.130986
770.000000	63.215005
760.000000	55.707542
750.000000	44.743464
740.000000	34.131847
730.000000	26.961049
720.000000	23.086730
710.000000	21.047342
700.000000	19.706014
690.000000	18.517371
680.000000	17.286276
670.000000	16.102268
660.000000	14.795602
650.000000	13.436795
640.000000	12.082530
630.000000	10.724132
620.000000	9.370458
610.000000	8.054758
600.000000	6.749524
590.000000	5.510740
580.000000	4.351602
570.000000	3.294029
560.000000	2.371472
550.000000	1.622422
540.000000	1.066230
530.000000	0.650624
520.000000	0.364557
510.000000	0.189044
500.000000	0.061864
490.000000	-0.011497
480.000000	0.081048
470.000000	0.044322
460.000000	-0.011950
450.000000	-0.058268
440.000000	0.001302
430.000000	-0.005640
420.000000	-0.028388
410.000000	-0.035556
400.000000	-0.056214
390.000000	-0.081074
380.000000	-0.101824
370.000000	-0.164295
360.000000	0.021322
350.000000	-0.151379
340.000000	-0.262081
330.000000	-0.524464
320.000000	-1.084688
310.000000	-0.995378
300.000000	0.332553
