PE UV       SUBTECH     SPECTRUM    ASCII       PEDS        4.00        
   -1
Void_TR.Sample.asc
23/04/12
11:52:20.00
23/04/12
11:52:20.00
Analyst

300.000000
1
Lambda 950
950L1311181
PerkinElmer UV WinLab 6.0.4.0738 / 1.61.00 Lambda 900

0
0
3350/servo 860.8/5
0
0
UV/VIS
1
1
1
RBeamAtt,SBeamAtt,150mm sphere / downward view, WB InGaAs Detector
0
0
0
0
Program
Program
3350/servo 860.8/5
3350/0.2 860.8/0.2
3350/0.2 860.8/0.2
0
9.50
 
 
 
0
 
860.8
319.2
860.8
Front
100
 
S:100 R:100
 
0
0
0
 
0
 
 
 
0
 
 
0
0
0
0
0
 
 
 
 
0
0


0
0
#HDR
-1
-1
#GR
nm
%R
1.0
0.0
1200.000000
-10.000000
91
8
1.841843
-0.061737
#DATA
1200.000000	1.355833
1190.000000	1.355671
1180.000000	1.345054
1170.000000	1.347032
1160.000000	1.341938
1150.000000	1.336945
1140.000000	1.330505
1130.000000	1.331820
1120.000000	1.326689
1110.000000	1.321862
1100.000000	1.319933
1090.000000	1.308186
1080.000000	1.309057
1070.000000	1.301424
1060.000000	1.294400
1050.000000	1.291746
1040.000000	1.281580
1030.000000	1.270263
1020.000000	1.269871
1010.000000	1.260962
1000.000000	1.249883
990.000000	1.246484
980.000000	1.247268
970.000000	1.218230
960.000000	1.218799
950.000000	1.210093
940.000000	1.197119
930.000000	1.183578
920.000000	1.165439
910.000000	1.155138
900.000000	1.131986
890.000000	1.107938
880.000000	1.036039
870.000000	1.030974
860.000000	1.042966
850.000000	1.179934
840.000000	1.814531
830.000000	1.841843
820.000000	1.610796
810.000000	1.353298
800.000000	1.164361
790.000000	1.285082
780.000000	1.233839
770.000000	1.206637
760.000000	1.174159
750.000000	1.131263
740.000000	1.106052
730.000000	1.067339
720.000000	1.040568
710.000000	0.995443
700.000000	0.966251
690.000000	0.943127
680.000000	0.905274
670.000000	0.926798
660.000000	0.917846
650.000000	0.918328
640.000000	0.919051
630.000000	0.907923
620.000000	0.894716
610.000000	0.907015
600.000000	0.897563
590.000000	0.897266
580.000000	0.903230
570.000000	0.886908
560.000000	0.865506
550.000000	0.894829
540.000000	0.911781
530.000000	0.916036
520.000000	0.907602
510.000000	0.878544
500.000000	0.810073
490.000000	0.815953
480.000000	0.945299
470.000000	0.918571
460.000000	0.845826
450.000000	0.825406
440.000000	0.888931
430.000000	0.873156
420.000000	0.865448
410.000000	0.861527
400.000000	0.845647
390.000000	0.829911
380.000000	0.812916
370.000000	0.758682
360.000000	0.954088
350.000000	0.792489
340.000000	0.685060
330.000000	0.450091
320.000000	-0.061737
310.000000	-0.061700
300.000000	-0.061662
